  1.0000000e+000 -7.0039293e-001 -7.0039293e-001 -7.0039293e-001 -7.0039293e-001 -7.4681564e-001 -7.0039293e-001 -6.3849599e-001 -6.8491870e-001 -6.6944446e-001 -7.3134140e-001 -6.6944446e-001 -7.3134140e-001 -7.4681564e-001 -7.3134140e-001 -7.3134140e-001 -7.6228987e-001 -7.3134140e-001 -7.6228987e-001 -7.6228987e-001 -7.6228987e-001 -7.9323835e-001 -9.0155800e-001 -8.2418682e-001 -7.9323835e-001 -8.7060953e-001 -8.3966105e-001 -8.7060953e-001 -9.0155800e-001 -8.8608376e-001 -9.4798071e-001 -9.4798071e-001 -9.6345494e-001 -9.7892918e-001 -9.4798071e-001 -9.4798071e-001 -9.4798071e-001 -9.7892918e-001 -1.0253519e+000 -1.1027231e+000 -9.9440341e-001 -1.0253519e+000 -9.7892918e-001 -1.0408261e+000 -9.9440341e-001 -9.9440341e-001 -9.7892918e-001 -9.3250647e-001 -8.8608376e-001 -9.1703223e-001 -9.0155800e-001 -8.8608376e-001 -7.4681564e-001 -7.6228987e-001 -7.4681564e-001 -7.1586717e-001 -7.6228987e-001 -6.3849599e-001 -6.3849599e-001 -6.8491870e-001 -6.0754752e-001 -5.6112481e-001 -6.0754752e-001 -6.5397022e-001 -6.0754752e-001 -5.3017634e-001 -5.6112481e-001 -6.3849599e-001 -5.7659904e-001 -5.7659904e-001 -5.4565057e-001 -5.6112481e-001 -6.0754752e-001 -6.2302175e-001 -6.3849599e-001 -6.2302175e-001 -6.3849599e-001 -6.6944446e-001 -7.0039293e-001 -7.3134140e-001 -6.6944446e-001 -6.3849599e-001 -6.8491870e-001 -7.1586717e-001 -6.8491870e-001 -7.4681564e-001 -7.0039293e-001 -7.0039293e-001 -7.1586717e-001 -7.4681564e-001 -6.6944446e-001 -7.1586717e-001 -7.4681564e-001 -7.1586717e-001 -7.3134140e-001 -7.4681564e-001 -8.0871258e-001 -7.6228987e-001 -6.6944446e-001 -7.3134140e-001 -7.1586717e-001 -6.6944446e-001 -7.3134140e-001 -7.4681564e-001 -7.1586717e-001 -7.3134140e-001 -7.1586717e-001 -7.6228987e-001 -6.8491870e-001 -7.3134140e-001 -6.8491870e-001 -6.5397022e-001 -6.8491870e-001 -6.5397022e-001 -6.8491870e-001 -6.8491870e-001 -6.8491870e-001 -6.6944446e-001 -6.6944446e-001 -5.9207328e-001 -5.9207328e-001 -4.8375363e-001 -4.5280516e-001 -3.9090821e-001 -3.4448551e-001 -2.9806280e-001 -2.8258856e-001 -2.0521738e-001 -1.2784620e-001 -1.7426891e-001 -2.5164009e-001 -1.8974315e-001 -2.6711433e-001 -3.2901127e-001 -4.3733092e-001 -4.5280516e-001 -5.1470210e-001 -5.4565057e-001 -5.6112481e-001 -5.4565057e-001 -6.0754752e-001 -5.6112481e-001 -7.1586717e-001 -7.7776411e-001 -8.0871258e-001 -8.5513529e-001 -9.4798071e-001 -9.3250647e-001 -9.4798071e-001 -9.6345494e-001 -9.9440341e-001 -9.1703223e-001 -9.7892918e-001 -1.0253519e+000 -1.0408261e+000 -9.9440341e-001 -9.6345494e-001 -9.6345494e-001 -9.4798071e-001 -1.0253519e+000 -1.0408261e+000 -1.0408261e+000 -9.4798071e-001 -9.9440341e-001 -1.0098776e+000 -9.9440341e-001 -9.6345494e-001 -9.1703223e-001 -7.3134140e-001 -5.6112481e-001 -3.4448551e-001 -1.9526551e-002  3.8280358e-001  7.5418524e-001  1.0017730e+000  1.1719896e+000  1.2184123e+000  1.2493608e+000  1.2493608e+000  1.2184123e+000  1.1100927e+000  1.0327215e+000  1.0481957e+000  1.1565154e+000  1.2648350e+000  1.2338866e+000  1.0017730e+000  4.6017476e-001 -3.5000787e-002 -3.4448551e-001 -2.8258856e-001  2.2806122e-001  6.9228830e-001  8.6250489e-001  6.7681406e-001  2.7448393e-001 -3.1353703e-001 -7.6228987e-001 -9.4798071e-001 -9.0155800e-001 -8.7060953e-001 -8.3966105e-001 -9.0155800e-001 -9.9440341e-001 -1.0253519e+000 -1.0717746e+000 -1.0563004e+000 -1.1181973e+000 -1.1027231e+000 -1.0253519e+000 -1.0098776e+000 -1.0872488e+000 -1.0717746e+000 -1.1027231e+000 -1.0563004e+000 -1.0253519e+000 -1.0563004e+000 -1.1027231e+000 -1.0408261e+000 -9.7892918e-001 -9.9440341e-001 -1.0098776e+000 -1.0408261e+000 -1.0717746e+000 -1.0717746e+000 -1.0408261e+000 -1.0563004e+000 -1.0717746e+000 -1.1491458e+000 -1.1336715e+000 -1.1181973e+000 -1.1027231e+000 -1.1336715e+000 -1.1181973e+000 -1.1491458e+000 -1.1336715e+000 -1.0872488e+000 -1.1491458e+000 -1.1491458e+000 -1.1491458e+000 -1.2110427e+000 -1.2265170e+000 -1.2110427e+000 -1.1955685e+000 -1.2419912e+000 -1.2884139e+000 -1.3193624e+000 -1.3193624e+000 -1.3348366e+000 -1.2884139e+000 -1.2729397e+000 -1.3038881e+000 -1.3503108e+000 -1.2884139e+000 -1.2574654e+000 -1.2884139e+000 -1.3193624e+000 -1.3503108e+000 -1.2884139e+000 -1.3193624e+000 -1.3038881e+000 -1.3193624e+000 -1.2729397e+000 -1.2574654e+000 -1.2574654e+000 -1.2110427e+000 -1.1491458e+000 -1.1027231e+000 -1.0872488e+000 -1.1181973e+000 -1.0872488e+000 -1.0098776e+000 -9.4798071e-001 -9.7892918e-001 -9.3250647e-001 -9.0155800e-001 -8.7060953e-001 -9.0155800e-001 -8.5513529e-001 -8.0871258e-001 -8.0871258e-001 -8.0871258e-001 -8.2418682e-001 -8.2418682e-001 -8.2418682e-001 -9.0155800e-001 -8.7060953e-001 -8.5513529e-001 -7.9323835e-001 -7.7776411e-001 -7.6228987e-001 -7.6228987e-001 -8.0871258e-001 -9.1703223e-001 -8.0871258e-001 -8.5513529e-001 -7.6228987e-001 -8.3966105e-001 -8.0871258e-001 -7.6228987e-001 -9.0155800e-001 -8.7060953e-001 -9.1703223e-001 -9.0155800e-001 -8.5513529e-001 -7.9323835e-001 -7.7776411e-001 -7.9323835e-001 -8.3966105e-001 -8.0871258e-001 -7.7776411e-001 -7.6228987e-001 -8.2418682e-001 -7.9323835e-001 -7.3134140e-001 -6.3849599e-001 -6.8491870e-001 -7.6228987e-001 -8.3966105e-001 -9.4798071e-001 -9.9440341e-001 -1.0872488e+000 -1.1027231e+000 -1.2419912e+000 -1.5360017e+000 -1.7371667e+000 -1.8145379e+000 -1.4276820e+000 -8.7060953e-001 -5.7659904e-001 -8.5513529e-001 -8.2418682e-001 -5.1470210e-001 -1.9526551e-002 -5.0475023e-002 -1.1237197e-001 -8.1423495e-002  2.1258699e-001  4.7564900e-001  5.8396865e-001  4.9112323e-001  3.5185511e-001  2.8995817e-001  1.6616428e-001 -6.5949259e-002 -5.6112481e-001 -8.5513529e-001 -7.6228987e-001 -6.0754752e-001 -6.0754752e-001 -8.0871258e-001 -9.9440341e-001 -1.0563004e+000 -1.0872488e+000 -9.6345494e-001 -5.7659904e-001 -1.7426891e-001 -2.0521738e-001 -4.5280516e-001 -8.8608376e-001 -1.1955685e+000 -1.5824244e+000 -1.8145379e+000 -1.4431563e+000 -8.3966105e-001 -4.3733092e-001 -7.0039293e-001 -1.1491458e+000 -1.3812593e+000 -1.4122078e+000 -1.3657851e+000 -1.0872488e+000 -7.4681564e-001 -7.0039293e-001 -8.2418682e-001 -9.4798071e-001 -8.2418682e-001 -5.7659904e-001 -4.3733092e-001 -5.9207328e-001 -7.4681564e-001 -6.8491870e-001 -4.9922786e-001 -2.6711433e-001 -5.0475023e-002  5.0659747e-001  1.0636700e+000  1.4505259e+000  1.7445363e+000  2.0075984e+000  2.3325573e+000  2.4254027e+000  2.2551861e+000  2.1778149e+000  2.1778149e+000  2.2861346e+000  2.3635058e+000  2.3944542e+000  2.4718254e+000  2.3480315e+000  2.1004438e+000  1.6826394e+000  1.2648350e+000  1.1874638e+000  1.3886289e+000  1.8064333e+000  1.9766499e+000  1.7290621e+000  1.1100927e+000  3.0543240e-001 -3.1353703e-001 -5.6112481e-001 -5.7659904e-001 -6.3849599e-001 -6.6944446e-001 -7.4681564e-001 -7.7776411e-001 -8.0871258e-001 -8.8608376e-001 -8.5513529e-001 -8.5513529e-001 -8.8608376e-001 -8.7060953e-001 -9.0155800e-001 -8.5513529e-001 -7.9323835e-001 -8.5513529e-001 -8.2418682e-001 -8.0871258e-001 -8.3966105e-001 -8.8608376e-001 -8.5513529e-001 -8.0871258e-001 -8.3966105e-001 -8.2418682e-001 -8.3966105e-001 -8.8608376e-001 -8.3966105e-001 -8.7060953e-001 -8.3966105e-001 -7.7776411e-001 -8.2418682e-001 -7.6228987e-001 -7.4681564e-001 -8.2418682e-001 -8.8608376e-001 -8.3966105e-001 -8.7060953e-001 -8.2418682e-001 -9.0155800e-001 -8.0871258e-001 -8.3966105e-001 -9.1703223e-001 -9.1703223e-001 -9.3250647e-001 -9.4798071e-001 -9.0155800e-001 -9.3250647e-001 -1.0253519e+000 -9.7892918e-001 -1.0253519e+000 -9.4798071e-001 -9.4798071e-001 -9.9440341e-001 -1.0253519e+000 -1.0253519e+000 -9.7892918e-001 -9.4798071e-001 -9.7892918e-001 -9.9440341e-001 -1.0563004e+000 -1.0408261e+000 -9.7892918e-001 -9.9440341e-001 -1.0253519e+000 -9.1703223e-001 -9.6345494e-001 -1.0098776e+000 -9.1703223e-001 -8.3966105e-001 -7.7776411e-001 -8.2418682e-001 -7.3134140e-001 -7.4681564e-001 -7.1586717e-001 -6.5397022e-001 -6.2302175e-001 -5.6112481e-001 -5.9207328e-001 -5.6112481e-001 -5.4565057e-001 -5.1470210e-001 -5.1470210e-001 -5.1470210e-001 -4.9922786e-001 -4.5280516e-001 -4.9922786e-001 -5.1470210e-001 -4.8375363e-001 -5.7659904e-001 -5.4565057e-001 -5.7659904e-001 -5.6112481e-001 -5.6112481e-001 -5.3017634e-001 -5.3017634e-001 -5.6112481e-001 -5.9207328e-001 -5.7659904e-001 -5.6112481e-001 -5.7659904e-001 -5.3017634e-001 -5.6112481e-001 -5.1470210e-001 -4.9922786e-001 -5.3017634e-001 -5.3017634e-001 -5.6112481e-001 -5.3017634e-001 -5.4565057e-001 -5.3017634e-001 -6.0754752e-001 -5.7659904e-001 -5.6112481e-001 -4.9922786e-001 -4.9922786e-001 -4.9922786e-001 -4.8375363e-001 -5.1470210e-001 -4.9922786e-001 -4.8375363e-001 -3.9090821e-001 -4.9922786e-001 -4.5280516e-001 -4.0638245e-001 -4.5280516e-001 -4.2185668e-001 -4.6827939e-001 -4.3733092e-001 -4.6827939e-001 -4.5280516e-001 -4.2185668e-001 -4.3733092e-001 -3.7543398e-001 -3.7543398e-001 -4.2185668e-001 -3.1353703e-001 -3.1353703e-001 -2.3616585e-001 -2.0521738e-001 -1.1237197e-001 -1.2784620e-001 -1.1237197e-001 -3.5000787e-002  8.8793100e-002  1.3521581e-001  1.9711275e-001  2.2806122e-001  3.0543240e-001  3.3638087e-001  3.5185511e-001  3.2090664e-001  2.2806122e-001  2.1258699e-001  1.1974157e-001  2.6896156e-002 -4.0523155e-003 -4.0523155e-003 -8.1423495e-002 -8.1423495e-002 -1.1237197e-001 -1.1237197e-001 -1.5879467e-001 -2.3616585e-001 -2.9806280e-001 -3.5995974e-001 -4.2185668e-001 -4.8375363e-001 -4.0638245e-001 -4.6827939e-001 -4.5280516e-001 -4.2185668e-001 -4.2185668e-001 -3.7543398e-001 -3.7543398e-001 -4.0638245e-001 -4.2185668e-001 -4.3733092e-001 -3.9090821e-001 -4.0638245e-001 -3.9090821e-001 -4.2185668e-001 -4.3733092e-001 -3.9090821e-001 -3.2901127e-001 -3.2901127e-001 -3.1353703e-001 -2.9806280e-001 -1.4332044e-001  1.3521581e-001  5.2207171e-001  9.3987607e-001  1.3267320e+000  1.5278970e+000  1.6052682e+000  1.4969486e+000  1.3731547e+000  1.2029381e+000  9.7082455e-001  8.4703066e-001  7.5418524e-001  8.7797913e-001  9.3987607e-001  1.0172473e+000  1.1255669e+000  1.1719896e+000  1.0017730e+000  7.5418524e-001  4.2922629e-001  4.1375205e-001  7.2323677e-001  1.2184123e+000  1.5897940e+000  1.5124228e+000  1.0636700e+000  4.2922629e-001  5.7844628e-002 -1.2784620e-001 -5.0475023e-002  2.6896156e-002  1.1421920e-002 -1.8974315e-001 -3.2901127e-001 -3.4448551e-001 -2.9806280e-001 -2.8258856e-001 -3.7543398e-001 -3.2901127e-001 -3.2901127e-001 -3.4448551e-001 -2.9806280e-001 -2.9806280e-001 -2.6711433e-001 -2.9806280e-001 -3.1353703e-001 -2.3616585e-001 -2.3616585e-001 -2.8258856e-001 -2.6711433e-001 -2.9806280e-001 -2.9806280e-001 -2.3616585e-001 -1.7426891e-001 -1.8974315e-001 -2.2069162e-001 -2.5164009e-001 -2.5164009e-001 -1.5879467e-001 -2.6711433e-001 -2.0521738e-001 -2.5164009e-001 -3.1353703e-001 -2.0521738e-001 -2.5164009e-001 -3.1353703e-001 -2.6711433e-001 -2.9806280e-001 -2.8258856e-001 -2.5164009e-001 -2.5164009e-001 -2.6711433e-001 -3.4448551e-001 -2.9806280e-001 -2.5164009e-001 -2.5164009e-001 -1.8974315e-001 -2.6711433e-001 -2.9806280e-001 -2.9806280e-001 -2.9806280e-001 -2.9806280e-001 -2.8258856e-001 -2.8258856e-001 -3.1353703e-001 -3.5995974e-001 -2.6711433e-001 -2.8258856e-001 -2.3616585e-001 -2.5164009e-001 -2.6711433e-001 -2.6711433e-001 -2.6711433e-001 -2.0521738e-001 -1.7426891e-001 -1.2784620e-001 -9.6897731e-002 -8.1423495e-002 -6.5949259e-002  2.6896156e-002 -4.0523155e-003  4.2370392e-002  1.1421920e-002  4.2370392e-002  1.1974157e-001  1.6616428e-001  1.3521581e-001  1.6616428e-001  1.0426734e-001  1.3521581e-001  2.1258699e-001  1.5069004e-001  1.3521581e-001  1.3521581e-001  1.3521581e-001  1.1974157e-001  1.9711275e-001  1.6616428e-001  1.5069004e-001  1.0426734e-001  1.1974157e-001  1.5069004e-001  1.0426734e-001  1.8163852e-001  5.7844628e-002  1.0426734e-001  1.1974157e-001  1.0426734e-001  1.3521581e-001  1.0426734e-001  5.7844628e-002  5.7844628e-002  4.2370392e-002  7.3318864e-002  1.0426734e-001  8.8793100e-002  1.1974157e-001  1.6616428e-001  1.5069004e-001  1.3521581e-001  1.9711275e-001  1.5069004e-001  1.5069004e-001  1.8163852e-001  2.4353546e-001  2.4353546e-001  1.9711275e-001  2.2806122e-001  2.2806122e-001  2.7448393e-001  3.0543240e-001  3.3638087e-001  2.5900969e-001  2.5900969e-001  3.3638087e-001  3.3638087e-001  3.5185511e-001  4.1375205e-001  4.4470053e-001  3.9827782e-001  4.9112323e-001  5.3754594e-001  6.1491712e-001  6.7681406e-001  7.3871101e-001  7.2323677e-001  8.3155642e-001  8.6250489e-001  9.3987607e-001  1.0327215e+000  1.0946184e+000  1.2338866e+000  1.2493608e+000  1.2184123e+000  1.1410411e+000  1.0946184e+000  9.7082455e-001  9.8629878e-001  9.7082455e-001  9.0892760e-001  8.9345337e-001  8.6250489e-001  8.6250489e-001  8.0060795e-001  8.3155642e-001  7.8513372e-001  6.4586559e-001  5.8396865e-001  5.5302018e-001  5.5302018e-001  5.6849441e-001  5.5302018e-001  5.5302018e-001  5.8396865e-001  5.8396865e-001  5.6849441e-001  6.6133983e-001  5.8396865e-001  5.8396865e-001  5.6849441e-001  6.1491712e-001  6.3039136e-001  6.7681406e-001  6.4586559e-001  6.1491712e-001  7.3871101e-001  6.6133983e-001  7.6965948e-001  8.6250489e-001  8.0060795e-001  8.9345337e-001  1.1100927e+000  1.3112577e+000  1.6207425e+000  2.0385468e+000  2.3944542e+000  2.6265678e+000  2.6884647e+000  2.6575163e+000  2.5491966e+000  2.4254027e+000  2.3325573e+000  2.1468665e+000  2.0540211e+000  2.1623407e+000  2.2242377e+000  2.3325573e+000  2.5027739e+000  2.5027739e+000  2.3789800e+000  2.0694953e+000  1.7909590e+000  1.7135879e+000  1.9147529e+000  2.4254027e+000  2.8586813e+000  2.8586813e+000  2.3789800e+000  1.8683302e+000  1.4350516e+000  1.3112577e+000  1.3267320e+000  1.3576804e+000  1.3267320e+000  1.1874638e+000  1.1100927e+000  1.0791442e+000  1.0946184e+000  1.1565154e+000  1.1719896e+000  1.1565154e+000  1.1410411e+000  1.1565154e+000  1.1100927e+000  1.0791442e+000  1.0636700e+000  1.0946184e+000  1.0791442e+000  1.1255669e+000  1.1410411e+000  1.1565154e+000  1.1719896e+000  1.1719896e+000  1.1565154e+000  1.1719896e+000  1.2184123e+000  1.2493608e+000  1.2029381e+000  1.1874638e+000  1.2029381e+000  1.2184123e+000  1.2029381e+000  1.1719896e+000  1.1719896e+000  1.2029381e+000  1.2184123e+000  1.2338866e+000  1.2029381e+000  1.2184123e+000  1.1719896e+000  1.1874638e+000  1.1565154e+000  1.1410411e+000  1.1874638e+000  1.1100927e+000  1.0791442e+000  1.0636700e+000  1.0636700e+000  1.1255669e+000  1.1255669e+000  1.0636700e+000  1.1100927e+000  1.1565154e+000  1.1410411e+000  1.1255669e+000  1.1100927e+000  1.1410411e+000  1.1100927e+000  1.0481957e+000  1.1410411e+000  1.0791442e+000  1.1410411e+000  1.1719896e+000  1.1565154e+000  1.1874638e+000  1.1719896e+000  1.1565154e+000  1.1410411e+000  1.2184123e+000  1.2493608e+000  1.2493608e+000  1.2957835e+000  1.3267320e+000  1.3731547e+000  1.3576804e+000  1.4195774e+000  1.4350516e+000  1.4041032e+000  1.4041032e+000  1.4195774e+000  1.4350516e+000  1.4505259e+000  1.5278970e+000  1.4660001e+000  1.4195774e+000  1.4195774e+000  1.4041032e+000  1.4350516e+000  1.4195774e+000  1.4505259e+000  1.4041032e+000  1.3731547e+000  1.4195774e+000  1.3731547e+000  1.3731547e+000  1.3267320e+000  1.3112577e+000  1.3422062e+000  1.3422062e+000  1.3267320e+000  1.2957835e+000  1.2957835e+000  1.3576804e+000  1.3267320e+000  1.3422062e+000  1.3267320e+000  1.3112577e+000  1.2184123e+000  1.2184123e+000  1.2957835e+000  1.3422062e+000  1.3576804e+000  1.2803093e+000  1.2957835e+000  1.2648350e+000  1.3112577e+000  1.3576804e+000  1.3731547e+000  1.3267320e+000  1.3731547e+000  1.3731547e+000  1.4195774e+000  1.4505259e+000  1.4505259e+000  1.3731547e+000  1.3731547e+000  1.3731547e+000  1.4505259e+000  1.4505259e+000  1.4195774e+000  1.4969486e+000  1.3886289e+000  1.4660001e+000  1.5278970e+000  1.5588455e+000  1.6052682e+000  1.6826394e+000  1.7135879e+000  1.7445363e+000  1.8373818e+000  1.8992787e+000  1.9611756e+000  1.9766499e+000  2.0540211e+000  2.1313922e+000  2.1623407e+000  2.1313922e+000  2.0230726e+000  1.9147529e+000  1.9147529e+000  1.8219075e+000  1.8219075e+000  1.7600106e+000  1.6516909e+000  1.7290621e+000  1.6516909e+000  1.6671652e+000  1.6362167e+000  1.4660001e+000  1.4505259e+000  1.3886289e+000  1.3576804e+000  1.3422062e+000  1.3576804e+000  1.3112577e+000  1.3267320e+000  1.2957835e+000  1.3886289e+000  1.3576804e+000  1.3422062e+000  1.3267320e+000  1.3267320e+000  1.3886289e+000  1.4505259e+000  1.4505259e+000  1.3886289e+000  1.4350516e+000  1.3731547e+000  1.4195774e+000  1.3576804e+000  1.3731547e+000  1.4350516e+000  1.4195774e+000  1.6052682e+000  1.7600106e+000  2.0385468e+000  2.3635058e+000  2.7194132e+000  2.9979494e+000  3.1062691e+000  3.1217433e+000  3.0443722e+000  2.9670010e+000  2.8432071e+000  2.7039390e+000  2.6110936e+000  2.5956193e+000  2.6729905e+000  2.8122586e+000  2.9205783e+000  2.9515267e+000  2.8432071e+000  2.5491966e+000  2.1623407e+000  2.0694953e+000  2.1313922e+000  2.7194132e+000  3.1991145e+000  3.3074342e+000  3.0288979e+000  2.4718254e+000  1.9611756e+000  1.6052682e+000  1.6362167e+000  1.6671652e+000  1.6826394e+000  1.5897940e+000  1.4350516e+000  1.3576804e+000  1.4041032e+000  1.4505259e+000  1.4350516e+000  1.3886289e+000  1.3731547e+000  1.3731547e+000  1.4350516e+000  1.4350516e+000  1.4350516e+000  1.4195774e+000  1.4350516e+000  1.3576804e+000  1.4195774e+000  1.4041032e+000  1.4505259e+000  1.3886289e+000  1.4350516e+000  1.4350516e+000  1.4814743e+000  1.4505259e+000  1.4505259e+000  1.3886289e+000  1.3886289e+000  1.4505259e+000  1.4350516e+000  1.3886289e+000  1.3267320e+000  1.3576804e+000  1.4041032e+000  1.3731547e+000  1.3731547e+000  1.3731547e+000  1.2957835e+000  1.2803093e+000  1.3112577e+000  1.3422062e+000  1.3112577e+000  1.2493608e+000  1.2029381e+000  1.2184123e+000  1.2338866e+000  1.2338866e+000  1.2184123e+000  1.2029381e+000  1.1565154e+000  1.1719896e+000  1.2029381e+000  1.2029381e+000  1.1255669e+000  1.0946184e+000  1.1255669e+000  1.1255669e+000  1.1255669e+000  1.0791442e+000  1.0172473e+000  1.0172473e+000  1.0946184e+000  1.1255669e+000  1.0481957e+000  1.1100927e+000  1.1255669e+000  1.0946184e+000  1.1100927e+000  1.2029381e+000  1.1719896e+000  1.2493608e+000  1.2338866e+000  1.2029381e+000  1.2184123e+000  1.2029381e+000  1.2803093e+000  1.2184123e+000  1.2338866e+000  1.2648350e+000  1.2493608e+000  1.2803093e+000  1.2803093e+000  1.2338866e+000  1.1719896e+000  1.1565154e+000  1.2184123e+000  1.2184123e+000  1.1874638e+000  1.1100927e+000  1.1255669e+000  1.0636700e+000  1.0172473e+000  1.0481957e+000  1.0791442e+000  1.0481957e+000  1.0017730e+000  9.0892760e-001  1.0017730e+000  1.0481957e+000  9.8629878e-001  9.0892760e-001  9.2440184e-001  8.9345337e-001  8.6250489e-001  8.4703066e-001  9.0892760e-001  8.7797913e-001  8.4703066e-001  9.0892760e-001  9.2440184e-001  8.6250489e-001  8.6250489e-001  8.7797913e-001  8.4703066e-001  8.6250489e-001  8.6250489e-001  8.4703066e-001  7.6965948e-001  7.5418524e-001  8.3155642e-001  8.4703066e-001  8.6250489e-001  8.4703066e-001  8.7797913e-001  8.3155642e-001  8.9345337e-001  8.4703066e-001  9.0892760e-001  9.0892760e-001  9.5535031e-001  9.2440184e-001  1.0481957e+000  1.0946184e+000  1.1719896e+000  1.1100927e+000  1.1719896e+000  1.2029381e+000  1.2648350e+000  1.3886289e+000  1.3886289e+000  1.4350516e+000  1.4814743e+000  1.4969486e+000  1.4969486e+000  1.4660001e+000  1.4195774e+000  1.3112577e+000  1.2338866e+000  1.1719896e+000  1.1255669e+000  1.0327215e+000  9.8629878e-001  9.7082455e-001  9.0892760e-001  9.0892760e-001  8.9345337e-001  7.6965948e-001  7.0776254e-001  5.5302018e-001  5.8396865e-001  5.6849441e-001  5.6849441e-001  5.8396865e-001  5.9944288e-001  5.6849441e-001  5.0659747e-001  5.3754594e-001  5.8396865e-001  5.2207171e-001  5.5302018e-001  5.0659747e-001  4.9112323e-001  5.0659747e-001  5.8396865e-001  5.0659747e-001  5.3754594e-001  5.6849441e-001  5.9944288e-001  5.8396865e-001  5.8396865e-001  6.7681406e-001  9.0892760e-001  1.0946184e+000  1.5433713e+000  1.8838045e+000  2.3170831e+000  2.4872997e+000  2.4718254e+000  2.3480315e+000  2.2551861e+000  2.1313922e+000  1.9302272e+000  1.7754848e+000  1.6826394e+000  1.7600106e+000  1.9147529e+000  2.0694953e+000  2.1623407e+000  2.1159180e+000  1.8528560e+000  1.4969486e+000  1.2493608e+000  1.2493608e+000  1.7600106e+000  2.2551861e+000  2.5956193e+000  2.4872997e+000  2.0230726e+000  1.3731547e+000  1.0017730e+000  8.1608219e-001  8.1608219e-001  8.6250489e-001  8.1608219e-001  6.1491712e-001  5.2207171e-001  4.4470053e-001  4.6017476e-001  4.7564900e-001  5.0659747e-001  4.7564900e-001  4.6017476e-001  4.2922629e-001  4.2922629e-001  4.9112323e-001  5.3754594e-001  4.9112323e-001  4.6017476e-001  4.1375205e-001  4.2922629e-001  4.6017476e-001  4.7564900e-001  4.4470053e-001  4.6017476e-001  4.4470053e-001  4.7564900e-001  4.7564900e-001  5.2207171e-001  4.7564900e-001  4.4470053e-001  4.2922629e-001  4.4470053e-001  4.4470053e-001  3.5185511e-001  3.0543240e-001  3.0543240e-001  3.3638087e-001  3.3638087e-001  3.0543240e-001  2.2806122e-001  2.5900969e-001  2.1258699e-001  2.1258699e-001  2.7448393e-001  2.5900969e-001  2.2806122e-001  1.9711275e-001  2.1258699e-001  1.8163852e-001  1.8163852e-001  1.1974157e-001  5.7844628e-002  7.3318864e-002  1.0426734e-001  1.1974157e-001  1.1974157e-001  8.8793100e-002  1.1421920e-002 -4.0523155e-003  1.1421920e-002 -1.9526551e-002  1.0426734e-001  5.7844628e-002  5.7844628e-002  2.6896156e-002  2.6896156e-002  8.8793100e-002  1.0426734e-001  1.5069004e-001  1.8163852e-001  1.8163852e-001  2.7448393e-001  3.2090664e-001  2.8995817e-001  2.8995817e-001  2.7448393e-001  2.8995817e-001  3.5185511e-001  3.6732935e-001  3.2090664e-001  3.5185511e-001  3.0543240e-001  2.7448393e-001  2.7448393e-001  3.0543240e-001  2.5900969e-001  1.9711275e-001  1.9711275e-001  1.5069004e-001  1.8163852e-001  1.8163852e-001  1.8163852e-001  1.1974157e-001  1.1974157e-001  1.3521581e-001  1.5069004e-001  7.3318864e-002  1.0426734e-001  7.3318864e-002  4.2370392e-002  1.1421920e-002  1.3521581e-001  7.3318864e-002 -1.9526551e-002 -1.9526551e-002 -4.0523155e-003 -1.9526551e-002 -3.5000787e-002 -3.5000787e-002 -9.6897731e-002 -8.1423495e-002 -6.5949259e-002 -3.5000787e-002 -1.2784620e-001 -6.5949259e-002 -9.6897731e-002 -2.0521738e-001 -1.2784620e-001 -1.5879467e-001 -1.4332044e-001 -1.1237197e-001 -1.2784620e-001 -1.2784620e-001 -1.2784620e-001 -6.5949259e-002 -6.5949259e-002 -1.1237197e-001 -9.6897731e-002 -6.5949259e-002 -4.0523155e-003  1.1421920e-002 -6.5949259e-002 -1.8974315e-001 -3.1353703e-001 -2.9806280e-001 -3.7543398e-001 -2.6711433e-001 -2.6711433e-001 -3.9090821e-001 -2.5164009e-001 -2.3616585e-001 -1.1237197e-001 -1.4332044e-001 -9.6897731e-002 -1.4332044e-001 -9.6897731e-002 -4.0523155e-003  2.4353546e-001  4.2922629e-001  4.4470053e-001  4.2922629e-001  5.5302018e-001  6.4586559e-001  5.3754594e-001  1.3521581e-001 -3.9090821e-001 -7.3134140e-001 -7.0039293e-001 -6.2302175e-001 -4.3733092e-001 -1.5879467e-001  1.8163852e-001  6.6133983e-001  1.1410411e+000  1.5433713e+000  1.7754848e+000  1.7445363e+000  1.2493608e+000  4.6017476e-001 -4.0638245e-001 -1.0098776e+000 -1.2884139e+000 -1.3193624e+000 -1.4122078e+000 -1.4586305e+000 -1.3348366e+000 -1.0872488e+000 -8.3966105e-001 -7.1586717e-001 -5.7659904e-001 -3.9090821e-001 -3.2901127e-001 -2.3616585e-001 -1.8974315e-001 -2.0521738e-001 -1.7426891e-001 -1.4332044e-001 -1.2784620e-001 -1.2784620e-001 -1.1237197e-001 -1.5879467e-001 -1.4332044e-001 -9.6897731e-002 -9.6897731e-002 -9.6897731e-002 -1.1237197e-001 -8.1423495e-002 -1.1237197e-001 -1.2784620e-001 -1.4332044e-001 -8.1423495e-002 -1.1237197e-001 -9.6897731e-002 -9.6897731e-002 -1.4332044e-001 -9.6897731e-002 -6.5949259e-002 -1.2784620e-001 -9.6897731e-002 -1.2784620e-001 -8.1423495e-002 -6.5949259e-002 -8.1423495e-002 -1.4332044e-001 -2.2069162e-001 -2.3616585e-001 -1.4332044e-001 -2.3616585e-001 -2.6711433e-001 -2.2069162e-001 -2.9806280e-001 -3.4448551e-001 -3.2901127e-001 -3.9090821e-001 -4.5280516e-001 -4.8375363e-001 -4.0638245e-001 -4.8375363e-001 -4.9922786e-001 -4.8375363e-001 -5.4565057e-001 -5.7659904e-001 -6.0754752e-001 -5.7659904e-001 -5.9207328e-001 -6.3849599e-001 -6.6944446e-001 -7.0039293e-001 -7.1586717e-001 -7.0039293e-001 -7.4681564e-001 -7.4681564e-001 -7.6228987e-001 -7.6228987e-001 -7.6228987e-001 -7.6228987e-001 -7.1586717e-001 -7.9323835e-001 -8.0871258e-001 -8.8608376e-001 -8.3966105e-001 -8.2418682e-001 -7.9323835e-001 -7.9323835e-001 -7.6228987e-001 -7.7776411e-001 -7.6228987e-001 -7.0039293e-001 -6.6944446e-001 -7.0039293e-001 -6.6944446e-001 -6.8491870e-001 -6.8491870e-001 -6.5397022e-001 -6.3849599e-001 -6.3849599e-001 -6.5397022e-001 -6.2302175e-001 -6.0754752e-001 -6.3849599e-001 -6.8491870e-001 -7.1586717e-001 -6.8491870e-001 -7.0039293e-001 -6.5397022e-001 -6.2302175e-001 -6.5397022e-001 -6.8491870e-001 -7.6228987e-001 -7.0039293e-001 -6.3849599e-001 -5.7659904e-001 -6.5397022e-001 -6.5397022e-001 -6.2302175e-001 -6.3849599e-001 -6.3849599e-001 -6.0754752e-001 -6.5397022e-001 -6.8491870e-001 -6.8491870e-001 -6.6944446e-001 -6.6944446e-001 -7.0039293e-001 -7.0039293e-001 -7.4681564e-001 -7.1586717e-001 -6.6944446e-001 -6.3849599e-001 -6.6944446e-001 -6.8491870e-001 -7.4681564e-001 -7.3134140e-001 -6.6944446e-001 -6.5397022e-001 -7.1586717e-001 -6.8491870e-001 -7.9323835e-001 -7.6228987e-001 -7.6228987e-001 -7.1586717e-001 -7.9323835e-001 -7.9323835e-001 -8.2418682e-001 -7.6228987e-001 -7.4681564e-001 -7.4681564e-001 -7.9323835e-001 -8.2418682e-001 -8.3966105e-001 -8.0871258e-001 -7.6228987e-001 -7.6228987e-001 -8.3966105e-001 -8.2418682e-001 -8.3966105e-001 -8.5513529e-001 -8.0871258e-001 -8.2418682e-001 -7.6228987e-001 -8.2418682e-001 -8.3966105e-001 -8.0871258e-001 -7.9323835e-001 -8.3966105e-001 -8.7060953e-001 -8.5513529e-001 -8.2418682e-001 -8.0871258e-001 -8.0871258e-001 -8.0871258e-001 -7.6228987e-001 -7.3134140e-001 -6.2302175e-001 -5.4565057e-001 -5.1470210e-001 -5.3017634e-001 -4.8375363e-001 -3.9090821e-001 -2.8258856e-001 -2.9806280e-001 -2.3616585e-001 -2.2069162e-001 -2.6711433e-001 -2.6711433e-001 -3.4448551e-001 -3.4448551e-001 -4.6827939e-001 -5.3017634e-001 -6.0754752e-001 -6.2302175e-001 -6.2302175e-001 -6.3849599e-001 -7.4681564e-001 -7.6228987e-001 -8.0871258e-001 -8.3966105e-001 -9.0155800e-001 -9.7892918e-001 -1.1027231e+000 -1.0717746e+000 -1.0717746e+000 -1.0408261e+000 -1.1336715e+000 -1.1336715e+000 -1.1646200e+000 -1.1646200e+000 -1.1181973e+000 -1.0563004e+000 -1.0872488e+000 -1.1646200e+000 -1.1800942e+000 -1.1646200e+000 -1.1646200e+000 -1.1646200e+000 -1.1800942e+000 -1.1491458e+000 -1.1181973e+000 -1.0408261e+000 -9.7892918e-001 -7.9323835e-001 -6.3849599e-001 -2.9806280e-001  2.6896156e-002  5.2207171e-001  1.0327215e+000  1.5433713e+000  1.8373818e+000  1.9921241e+000  2.1468665e+000  2.2087634e+000  2.2706604e+000  2.0849695e+000  1.9766499e+000  1.9766499e+000  2.0075984e+000  2.1004438e+000  2.0694953e+000  1.8838045e+000  1.3112577e+000  6.7681406e-001  2.2806122e-001  1.9711275e-001  5.5302018e-001  1.1255669e+000  1.3576804e+000  1.1874638e+000  6.1491712e-001 -4.0523155e-003 -6.2302175e-001 -1.0563004e+000 -1.1955685e+000 -1.1181973e+000 -1.1955685e+000 -1.1491458e+000 -1.2574654e+000 -1.3038881e+000 -1.3193624e+000 -1.3812593e+000 -1.2729397e+000 -1.2419912e+000 -1.2729397e+000 -1.3348366e+000 -1.3503108e+000 -1.4122078e+000 -1.3348366e+000 -1.3657851e+000 -1.3503108e+000 -1.3657851e+000 -1.3657851e+000 -1.3348366e+000 -1.3812593e+000 -1.3038881e+000 -1.2729397e+000 -1.3503108e+000 -1.3812593e+000 -1.3657851e+000 -1.3657851e+000 -1.2574654e+000 -1.3038881e+000 -1.4122078e+000 -1.4586305e+000 -1.4741047e+000 -1.4122078e+000 -1.4586305e+000 -1.4431563e+000 -1.5050532e+000 -1.5360017e+000 -1.5360017e+000 -1.5824244e+000 -1.5360017e+000 -1.5824244e+000 -1.5514759e+000 -1.6597956e+000 -1.6443213e+000 -1.6443213e+000 -1.5978986e+000 -1.6133728e+000 -1.6597956e+000 -1.7526410e+000 -1.7216925e+000 -1.7062183e+000 -1.7526410e+000 -1.9073833e+000 -1.8919091e+000 -1.9073833e+000 -1.8919091e+000 -1.9073833e+000 -1.8919091e+000 -1.8454864e+000 -1.8454864e+000 -1.9073833e+000 -1.8300122e+000 -1.8764349e+000 -1.9073833e+000 -1.9073833e+000 -1.8145379e+000 -1.7835894e+000 -1.7216925e+000 -1.6907440e+000 -1.7062183e+000 -1.7216925e+000 -1.6133728e+000 -1.5669501e+000 -1.5514759e+000 -1.5205274e+000 -1.4586305e+000 -1.3812593e+000 -1.3348366e+000 -1.3193624e+000 -1.3348366e+000 -1.3038881e+000 -1.3503108e+000 -1.2884139e+000 -1.2574654e+000 -1.2110427e+000 -1.1491458e+000 -1.1800942e+000 -1.3038881e+000 -1.2419912e+000 -1.1955685e+000 -1.2265170e+000 -1.1800942e+000 -1.2110427e+000 -1.2265170e+000 -1.2419912e+000 -1.1955685e+000 -1.2265170e+000 -1.2574654e+000 -1.2110427e+000 -1.2110427e+000 -1.1491458e+000 -1.2110427e+000 -1.2265170e+000 -1.2110427e+000 -1.1955685e+000 -1.2419912e+000 -1.2110427e+000 -1.2574654e+000 -1.2574654e+000 -1.2574654e+000 -1.2419912e+000 -1.2419912e+000 -1.2110427e+000 -1.2419912e+000 -1.2110427e+000 -1.3193624e+000 -1.2265170e+000 -1.1491458e+000 -1.1955685e+000 -1.1336715e+000 -1.1646200e+000 -1.1646200e+000 -1.0717746e+000 -1.0408261e+000 -1.0563004e+000 -1.0253519e+000 -9.0155800e-001 -8.8608376e-001 -9.0155800e-001 -7.4681564e-001 -6.6944446e-001 -6.8491870e-001 -6.2302175e-001 -5.6112481e-001 -4.6827939e-001 -3.7543398e-001 -3.9090821e-001 -3.7543398e-001 -4.6827939e-001 -4.5280516e-001 -4.9922786e-001 -4.9922786e-001 -5.4565057e-001 -6.0754752e-001 -7.0039293e-001 -7.6228987e-001 -7.7776411e-001 -7.6228987e-001 -8.0871258e-001 -8.5513529e-001 -9.9440341e-001 -1.0563004e+000 -1.0717746e+000 -1.1027231e+000 -1.1336715e+000 -1.1800942e+000 -1.1800942e+000 -1.1646200e+000 -1.1800942e+000 -1.1646200e+000 -1.1491458e+000 -1.1646200e+000 -1.1646200e+000 -1.1181973e+000 -1.0872488e+000 -1.1027231e+000 -1.1181973e+000 -1.0872488e+000 -1.1336715e+000 -1.1646200e+000 -1.1491458e+000 -1.1955685e+000 -1.1336715e+000 -1.0253519e+000 -9.6345494e-001 -7.0039293e-001 -5.3017634e-001 -3.1353703e-001  1.1421920e-002  3.9827782e-001  9.5535031e-001  1.4814743e+000  1.7290621e+000  1.7135879e+000  1.8683302e+000  1.8528560e+000  1.8373818e+000  1.6826394e+000  1.5588455e+000  1.5897940e+000  1.6362167e+000  1.7135879e+000  1.7754848e+000  1.5124228e+000  1.0481957e+000  3.2090664e-001 -1.7426891e-001 -2.6711433e-001  1.5069004e-001  7.2323677e-001  1.0946184e+000  1.0172473e+000  4.7564900e-001 -9.6897731e-002 -6.8491870e-001 -9.0155800e-001 -9.1703223e-001 -8.8608376e-001 -9.3250647e-001 -1.0563004e+000 -1.1181973e+000 -1.1336715e+000 -1.1491458e+000 -1.1491458e+000 -1.1800942e+000 -1.1336715e+000 -1.2110427e+000 -1.1646200e+000 -1.2265170e+000 -1.2110427e+000 -1.1491458e+000 -1.1646200e+000 -1.1491458e+000 -1.1491458e+000 -1.1181973e+000 -1.1800942e+000 -1.1800942e+000 -1.1336715e+000 -1.1491458e+000 -1.1955685e+000 -1.2729397e+000 -1.2574654e+000 -1.2110427e+000 -1.2110427e+000 -1.1955685e+000 -1.1955685e+000 -1.2419912e+000 -1.2574654e+000 -1.2729397e+000 -1.2729397e+000 -1.2419912e+000 -1.2884139e+000 -1.2729397e+000 -1.2884139e+000 -1.2729397e+000 -1.3193624e+000 -1.3193624e+000 -1.3503108e+000 -1.4122078e+000 -1.3657851e+000 -1.3967335e+000 -1.4431563e+000 -1.4586305e+000 -1.4895790e+000 -1.5669501e+000 -1.5669501e+000 -1.5360017e+000 -1.5205274e+000 -1.5050532e+000 -1.5360017e+000 -1.5360017e+000 -1.4895790e+000 -1.5050532e+000 -1.5669501e+000 -1.5514759e+000 -1.5824244e+000 -1.5669501e+000 -1.4741047e+000 -1.4586305e+000 -1.4741047e+000 -1.5205274e+000 -1.4431563e+000 -1.3967335e+000 -1.3967335e+000 -1.3193624e+000 -1.2884139e+000 -1.2729397e+000 -1.1646200e+000 -1.0872488e+000 -1.0872488e+000 -1.1027231e+000 -1.1027231e+000 -1.0563004e+000 -1.0872488e+000 -9.4798071e-001 -9.1703223e-001 -1.0563004e+000 -1.0563004e+000 -1.0408261e+000 -1.0408261e+000 -1.0253519e+000 -1.0098776e+000 -1.0408261e+000 -1.0872488e+000 -1.0408261e+000 -9.7892918e-001 -9.7892918e-001 -9.7892918e-001 -1.0563004e+000 -1.0563004e+000 -1.0872488e+000 -1.0563004e+000 -1.1027231e+000 -1.0253519e+000 -1.0408261e+000 -1.0253519e+000 -1.0408261e+000 -1.0098776e+000 -1.0872488e+000 -1.0408261e+000 -1.0717746e+000 -9.9440341e-001 -9.4798071e-001 -9.9440341e-001 -9.6345494e-001 -9.6345494e-001 -1.0408261e+000 -1.0408261e+000 -9.6345494e-001 -9.6345494e-001 -9.1703223e-001 -8.8608376e-001 -8.8608376e-001 -8.0871258e-001 -7.7776411e-001 -7.0039293e-001 -6.8491870e-001 -7.0039293e-001 -6.6944446e-001 -5.3017634e-001 -4.6827939e-001 -3.9090821e-001 -3.9090821e-001 -2.9806280e-001 -2.6711433e-001 -2.8258856e-001 -3.4448551e-001 -4.3733092e-001 -4.6827939e-001 -4.5280516e-001 -5.4565057e-001 -5.3017634e-001 -5.7659904e-001 -6.0754752e-001 -6.3849599e-001 -7.0039293e-001 -6.6944446e-001 -6.8491870e-001 -7.9323835e-001 -9.0155800e-001 -9.4798071e-001 -9.4798071e-001 -9.1703223e-001 -9.7892918e-001 -9.6345494e-001 -1.0253519e+000 -9.9440341e-001 -1.0253519e+000 -9.3250647e-001 -9.4798071e-001 -9.0155800e-001 -9.4798071e-001 -1.0253519e+000 -9.9440341e-001 -9.6345494e-001 -9.0155800e-001 -9.1703223e-001 -9.3250647e-001 -9.1703223e-001 -9.0155800e-001 -8.3966105e-001 -8.0871258e-001 -7.6228987e-001 -7.0039293e-001 -4.9922786e-001 -2.3616585e-001  1.3521581e-001  5.8396865e-001  1.0481957e+000  1.5588455e+000  1.9921241e+000  2.2706604e+000  2.4718254e+000  2.6420420e+000  2.5646708e+000  2.4718254e+000  2.2087634e+000  2.1313922e+000  2.1313922e+000  2.1778149e+000  2.1468665e+000  1.9611756e+000  1.6207425e+000  1.1255669e+000  5.9944288e-001  2.7448393e-001  5.0659747e-001  1.0327215e+000  1.4041032e+000  1.5433713e+000  1.1719896e+000  4.7564900e-001 -1.8974315e-001 -6.5397022e-001 -8.2418682e-001 -7.7776411e-001 -7.9323835e-001 -8.7060953e-001 -1.0408261e+000 -1.0253519e+000 -1.0717746e+000 -1.0717746e+000 -1.0098776e+000 -9.6345494e-001 -1.0098776e+000 -1.0098776e+000 -1.0872488e+000 -1.0563004e+000 -1.0098776e+000 -1.1027231e+000 -1.0872488e+000 -1.0563004e+000 -9.9440341e-001 -9.4798071e-001 -9.6345494e-001 -1.0717746e+000 -9.9440341e-001 -1.0408261e+000 -1.0098776e+000 -1.0408261e+000 -1.0098776e+000 -1.0253519e+000 -1.0408261e+000 -9.9440341e-001 -1.0098776e+000 -1.0253519e+000 -1.0717746e+000 -1.1336715e+000 -1.1027231e+000 -1.0717746e+000 -1.0872488e+000 -1.1027231e+000 -1.0717746e+000 -1.1491458e+000 -1.1955685e+000 -1.1800942e+000 -1.1646200e+000 -1.2110427e+000 -1.1646200e+000 -1.1646200e+000 -1.2419912e+000 -1.2265170e+000 -1.2419912e+000 -1.3193624e+000 -1.2729397e+000 -1.3657851e+000 -1.3503108e+000 -1.3038881e+000 -1.4122078e+000 -1.3967335e+000 -1.4122078e+000 -1.4122078e+000 -1.4276820e+000 -1.4122078e+000 -1.4586305e+000 -1.4276820e+000 -1.4895790e+000 -1.4741047e+000 -1.4586305e+000 -1.3967335e+000 -1.3657851e+000 -1.3812593e+000 -1.4122078e+000 -1.3657851e+000 -1.2419912e+000 -1.2574654e+000 -1.2574654e+000 -1.2110427e+000 -1.1800942e+000 -1.0717746e+000 -1.0563004e+000 -1.0098776e+000 -1.0253519e+000 -9.4798071e-001 -8.7060953e-001 -8.2418682e-001 -8.7060953e-001 -7.6228987e-001 -8.2418682e-001 -8.2418682e-001 -8.5513529e-001 -8.3966105e-001 -7.4681564e-001 -8.2418682e-001 -8.5513529e-001 -8.2418682e-001 -8.8608376e-001 -8.2418682e-001 -7.9323835e-001 -8.2418682e-001 -8.7060953e-001 -8.8608376e-001 -8.8608376e-001 -9.6345494e-001 -9.3250647e-001 -9.1703223e-001 -9.1703223e-001 -9.6345494e-001 -9.3250647e-001 -9.1703223e-001 -9.1703223e-001 -9.3250647e-001 -9.6345494e-001 -9.1703223e-001 -9.9440341e-001 -9.4798071e-001 -9.3250647e-001 -9.6345494e-001 -1.0253519e+000 -9.3250647e-001 -9.1703223e-001 -8.8608376e-001 -8.5513529e-001 -8.7060953e-001 -8.5513529e-001 -8.2418682e-001 -8.2418682e-001 -7.9323835e-001 -7.3134140e-001 -7.4681564e-001 -6.6944446e-001 -5.7659904e-001 -4.0638245e-001 -3.5995974e-001 -3.1353703e-001 -3.1353703e-001 -2.6711433e-001 -3.2901127e-001 -3.7543398e-001 -3.9090821e-001 -4.2185668e-001 -4.3733092e-001 -4.6827939e-001 -6.3849599e-001 -6.5397022e-001 -7.4681564e-001 -9.0155800e-001 -1.0098776e+000 -1.0253519e+000 -9.7892918e-001 -9.3250647e-001 -8.0871258e-001 -6.3849599e-001 -5.4565057e-001 -5.6112481e-001 -5.1470210e-001 -3.7543398e-001 -4.9922786e-001 -8.0871258e-001 -1.2884139e+000 -1.6907440e+000 -1.7990637e+000 -1.8609606e+000 -1.8609606e+000 -1.7216925e+000 -1.6133728e+000 -1.3967335e+000 -1.1955685e+000 -8.2418682e-001 -4.3733092e-001 -2.5164009e-001 -3.7543398e-001 -7.6228987e-001 -1.3348366e+000 -1.8919091e+000 -2.2168680e+000 -2.2168680e+000 -2.1085484e+000 -1.9383318e+000 -1.8145379e+000 -1.6288471e+000 -1.3503108e+000 -1.1181973e+000 -8.3966105e-001 -7.1586717e-001 -6.2302175e-001 -4.8375363e-001 -4.5280516e-001 -4.5280516e-001 -3.5995974e-001 -3.9090821e-001 -3.4448551e-001 -3.5995974e-001 -3.9090821e-001 -3.4448551e-001 -3.4448551e-001 -2.6711433e-001 -2.8258856e-001 -2.5164009e-001 -2.2069162e-001 -2.5164009e-001 -2.0521738e-001 -1.8974315e-001 -2.2069162e-001 -2.3616585e-001 -2.0521738e-001 -1.8974315e-001 -2.2069162e-001 -1.2784620e-001 -1.5879467e-001 -1.5879467e-001 -1.1237197e-001 -1.4332044e-001 -6.5949259e-002 -8.1423495e-002 -1.2784620e-001 -1.2784620e-001 -1.2784620e-001 -6.5949259e-002 -9.6897731e-002 -9.6897731e-002 -5.0475023e-002 -1.1237197e-001 -6.5949259e-002 -9.6897731e-002 -8.1423495e-002 -8.1423495e-002 -1.1237197e-001 -1.2784620e-001 -1.5879467e-001 -6.5949259e-002 -9.6897731e-002 -8.1423495e-002 -1.2784620e-001 -8.1423495e-002 -1.5879467e-001 -9.6897731e-002 -1.4332044e-001 -1.7426891e-001 -1.5879467e-001 -2.2069162e-001 -1.4332044e-001 -1.5879467e-001 -1.5879467e-001 -1.5879467e-001 -1.7426891e-001 -1.8974315e-001 -2.2069162e-001 -1.8974315e-001 -1.5879467e-001 -1.8974315e-001 -2.3616585e-001 -2.3616585e-001 -2.2069162e-001 -2.0521738e-001 -2.2069162e-001 -2.6711433e-001 -2.8258856e-001 -2.9806280e-001 -2.6711433e-001 -2.6711433e-001 -3.4448551e-001 -3.1353703e-001 -2.6711433e-001 -2.8258856e-001 -2.6711433e-001 -2.5164009e-001 -2.8258856e-001 -3.5995974e-001 -3.2901127e-001 -2.8258856e-001 -2.9806280e-001 -3.5995974e-001 -3.2901127e-001 -3.4448551e-001 -3.2901127e-001 -3.4448551e-001 -2.8258856e-001 -3.2901127e-001 -3.2901127e-001 -3.7543398e-001 -3.7543398e-001 -4.0638245e-001 -3.2901127e-001 -3.7543398e-001 -4.0638245e-001 -3.9090821e-001 -3.9090821e-001 -3.5995974e-001 -3.2901127e-001 -3.2901127e-001 -3.2901127e-001 -3.9090821e-001 -3.5995974e-001 -3.2901127e-001 -3.4448551e-001 -2.6711433e-001 -2.9806280e-001 -3.2901127e-001 -2.9806280e-001 -2.8258856e-001 -2.8258856e-001 -2.8258856e-001 -2.9806280e-001 -2.9806280e-001 -2.8258856e-001 -2.5164009e-001 -1.8974315e-001 -2.9806280e-001 -2.6711433e-001 -2.2069162e-001 -2.5164009e-001 -2.6711433e-001 -2.2069162e-001 -2.6711433e-001 -2.6711433e-001 -2.2069162e-001 -1.7426891e-001 -2.0521738e-001 -2.2069162e-001 -2.3616585e-001 -2.2069162e-001 -2.0521738e-001 -1.8974315e-001 -1.8974315e-001 -1.5879467e-001 -1.2784620e-001 -1.7426891e-001 -1.2784620e-001 -1.2784620e-001 -1.7426891e-001 -1.1237197e-001 -1.8974315e-001 -1.2784620e-001 -9.6897731e-002 -1.9526551e-002  4.2370392e-002  8.8793100e-002  1.3521581e-001  1.9711275e-001  1.8163852e-001  2.2806122e-001  2.7448393e-001  3.3638087e-001  3.9827782e-001  5.2207171e-001  5.9944288e-001  5.3754594e-001  5.0659747e-001  4.7564900e-001  3.6732935e-001  3.9827782e-001  3.2090664e-001  3.0543240e-001  2.7448393e-001  2.2806122e-001  1.8163852e-001  2.2806122e-001  1.6616428e-001  1.0426734e-001  4.2370392e-002 -4.0523155e-003  1.1421920e-002 -3.5000787e-002 -9.6897731e-002 -1.1237197e-001 -1.8974315e-001 -2.0521738e-001 -1.8974315e-001 -2.0521738e-001 -1.5879467e-001 -1.2784620e-001 -1.5879467e-001 -2.2069162e-001 -1.2784620e-001 -5.0475023e-002 -1.1237197e-001 -1.5879467e-001 -2.0521738e-001 -2.0521738e-001 -1.8974315e-001 -1.2784620e-001 -8.1423495e-002 -1.2784620e-001 -1.9526551e-002  1.3521581e-001  2.7448393e-001  4.9112323e-001  8.6250489e-001  1.2029381e+000  1.5588455e+000  2.0075984e+000  2.2397119e+000  2.4872997e+000  2.5801451e+000  2.5956193e+000  2.6420420e+000  2.5646708e+000  2.5337224e+000  2.6265678e+000  2.6884647e+000  2.7967844e+000  2.8432071e+000  2.7813101e+000  2.3480315e+000  1.8373818e+000  1.2648350e+000  1.0327215e+000  1.1874638e+000  1.7754848e+000  2.3325573e+000  2.5337224e+000  2.1932892e+000  1.5897940e+000  9.5535031e-001  3.6732935e-001  1.0426734e-001  4.2370392e-002  4.2370392e-002 -1.9526551e-002 -1.1237197e-001 -1.5879467e-001 -1.4332044e-001 -1.5879467e-001 -1.2784620e-001 -1.7426891e-001 -1.7426891e-001 -1.5879467e-001 -1.5879467e-001 -1.4332044e-001 -1.2784620e-001 -1.2784620e-001 -1.2784620e-001 -1.2784620e-001 -1.1237197e-001 -8.1423495e-002 -9.6897731e-002 -6.5949259e-002 -9.6897731e-002 -1.2784620e-001 -9.6897731e-002 -2.2069162e-001 -1.7426891e-001 -9.6897731e-002 -9.6897731e-002 -3.5000787e-002 -9.6897731e-002 -1.1237197e-001 -8.1423495e-002 -1.2784620e-001 -1.2784620e-001 -2.0521738e-001 -1.8974315e-001 -1.4332044e-001 -1.4332044e-001 -1.7426891e-001 -2.2069162e-001 -2.0521738e-001 -2.2069162e-001 -2.3616585e-001 -2.6711433e-001 -2.3616585e-001 -3.2901127e-001 -3.1353703e-001 -2.8258856e-001 -3.2901127e-001 -2.8258856e-001 -3.1353703e-001 -3.5995974e-001 -3.9090821e-001 -3.5995974e-001 -3.5995974e-001 -3.5995974e-001 -3.4448551e-001 -3.9090821e-001 -3.7543398e-001 -4.0638245e-001 -3.4448551e-001 -3.4448551e-001 -3.1353703e-001 -3.2901127e-001 -3.7543398e-001 -3.2901127e-001 -2.3616585e-001 -1.4332044e-001 -1.8974315e-001 -9.6897731e-002 -9.6897731e-002 -1.9526551e-002 -4.0523155e-003  5.7844628e-002  7.3318864e-002  4.2370392e-002  1.1974157e-001  1.5069004e-001  1.6616428e-001  1.9711275e-001  1.8163852e-001  2.2806122e-001  2.2806122e-001  2.1258699e-001  2.7448393e-001  2.8995817e-001  1.9711275e-001  2.5900969e-001  2.4353546e-001  1.9711275e-001  1.9711275e-001  1.6616428e-001  1.6616428e-001  1.9711275e-001  1.8163852e-001  1.8163852e-001  1.6616428e-001  1.0426734e-001  4.2370392e-002  8.8793100e-002  2.6896156e-002  8.8793100e-002 -1.9526551e-002  2.6896156e-002 -4.0523155e-003  4.2370392e-002  5.7844628e-002  8.8793100e-002  5.7844628e-002  7.3318864e-002  5.7844628e-002  7.3318864e-002  1.1974157e-001  2.6896156e-002  1.1974157e-001  8.8793100e-002  1.1974157e-001  1.5069004e-001  1.8163852e-001  1.8163852e-001  2.2806122e-001  2.2806122e-001  3.2090664e-001  4.1375205e-001  4.2922629e-001  4.6017476e-001  4.6017476e-001  5.8396865e-001  7.2323677e-001  7.8513372e-001  8.9345337e-001  8.7797913e-001  9.2440184e-001  9.7082455e-001  1.0172473e+000  9.7082455e-001  8.6250489e-001  8.4703066e-001  7.6965948e-001  7.3871101e-001  7.0776254e-001  7.0776254e-001  5.8396865e-001  6.1491712e-001  5.3754594e-001  5.5302018e-001  5.3754594e-001  5.3754594e-001  3.8280358e-001  3.2090664e-001  2.7448393e-001  2.5900969e-001  2.2806122e-001  2.4353546e-001  2.2806122e-001  2.5900969e-001  2.5900969e-001  2.5900969e-001  2.4353546e-001  2.2806122e-001  2.2806122e-001  2.2806122e-001  2.4353546e-001  2.1258699e-001  3.2090664e-001  2.8995817e-001  2.7448393e-001  2.8995817e-001  2.5900969e-001  3.8280358e-001  3.0543240e-001  4.7564900e-001  5.8396865e-001  8.9345337e-001  1.2493608e+000  1.6671652e+000  1.9921241e+000  2.3170831e+000  2.5182481e+000  2.5491966e+000  2.5801451e+000  2.6575163e+000  2.5956193e+000  2.5337224e+000  2.4408770e+000  2.5027739e+000  2.6575163e+000  2.7813101e+000  2.8432071e+000  2.7348874e+000  2.3480315e+000  1.9302272e+000  1.4350516e+000  1.2338866e+000  1.4660001e+000  2.0230726e+000  2.6110936e+000  2.8432071e+000  2.5956193e+000  2.0694953e+000  1.3886289e+000  8.3155642e-001  4.9112323e-001  5.3754594e-001  5.5302018e-001  5.0659747e-001  3.8280358e-001  3.2090664e-001  2.2806122e-001  2.5900969e-001  2.7448393e-001  2.8995817e-001  2.5900969e-001  2.5900969e-001  2.8995817e-001  3.0543240e-001  3.2090664e-001  2.4353546e-001  2.4353546e-001  2.4353546e-001  3.0543240e-001  2.7448393e-001  3.2090664e-001  2.5900969e-001  2.5900969e-001  2.4353546e-001  2.4353546e-001  3.5185511e-001  3.2090664e-001  2.2806122e-001  1.8163852e-001  1.9711275e-001  1.8163852e-001  1.8163852e-001  1.6616428e-001  1.1974157e-001  1.3521581e-001  1.5069004e-001  1.8163852e-001  1.5069004e-001  1.5069004e-001  1.1974157e-001  4.2370392e-002  1.0426734e-001  8.8793100e-002  1.5069004e-001  5.7844628e-002  2.6896156e-002  2.6896156e-002  7.3318864e-002  4.2370392e-002 -1.9526551e-002 -3.5000787e-002 -8.1423495e-002 -9.6897731e-002 -9.6897731e-002 -5.0475023e-002 -8.1423495e-002 -1.5879467e-001 -2.0521738e-001 -1.7426891e-001 -1.2784620e-001 -1.2784620e-001 -6.5949259e-002 -9.6897731e-002 -3.5000787e-002  5.7844628e-002  5.7844628e-002  8.8793100e-002  1.1974157e-001  1.3521581e-001  1.8163852e-001  2.2806122e-001  3.3638087e-001  2.8995817e-001  2.7448393e-001  3.5185511e-001  4.1375205e-001  4.4470053e-001  4.4470053e-001  4.9112323e-001  5.0659747e-001  5.3754594e-001  5.0659747e-001  5.0659747e-001  4.6017476e-001  3.6732935e-001  4.2922629e-001  5.0659747e-001  4.6017476e-001  5.0659747e-001  5.0659747e-001  4.7564900e-001  4.1375205e-001  4.9112323e-001  5.0659747e-001  4.9112323e-001  4.2922629e-001  3.8280358e-001  4.6017476e-001  4.9112323e-001  4.7564900e-001  5.0659747e-001  4.6017476e-001  4.6017476e-001  4.9112323e-001  4.6017476e-001  4.7564900e-001  4.1375205e-001  3.9827782e-001  4.2922629e-001  4.9112323e-001  4.7564900e-001  5.0659747e-001  5.0659747e-001  4.4470053e-001  4.7564900e-001  4.1375205e-001  4.6017476e-001  5.3754594e-001  4.9112323e-001  4.9112323e-001  4.7564900e-001  5.5302018e-001  5.5302018e-001  5.5302018e-001  5.0659747e-001  5.9944288e-001  5.9944288e-001  6.7681406e-001  7.5418524e-001  8.1608219e-001  7.8513372e-001  8.3155642e-001  9.2440184e-001  9.7082455e-001  1.0636700e+000  1.1255669e+000  1.1255669e+000  1.1874638e+000  1.2184123e+000  1.2029381e+000  1.1410411e+000  1.0481957e+000  9.5535031e-001  8.7797913e-001  8.6250489e-001  8.6250489e-001  6.9228830e-001  5.5302018e-001  6.1491712e-001  5.5302018e-001  5.5302018e-001  5.3754594e-001  4.2922629e-001  3.0543240e-001  3.3638087e-001  3.2090664e-001  2.4353546e-001  2.5900969e-001  2.4353546e-001  2.2806122e-001  1.9711275e-001  1.9711275e-001  2.5900969e-001  2.1258699e-001  1.9711275e-001  2.4353546e-001  2.7448393e-001  2.4353546e-001  2.1258699e-001  1.5069004e-001  8.8793100e-002  1.0426734e-001  1.5069004e-001  1.9711275e-001  2.4353546e-001  3.6732935e-001  5.5302018e-001  7.0776254e-001  9.8629878e-001  1.2648350e+000  1.6516909e+000  2.0540211e+000  2.3635058e+000  2.4254027e+000  2.4408770e+000  2.4872997e+000  2.3635058e+000  2.2397119e+000  2.1313922e+000  2.1623407e+000  2.2397119e+000  2.4718254e+000  2.5337224e+000  2.4563512e+000  2.2242377e+000  1.7290621e+000  1.2493608e+000  8.3155642e-001  8.1608219e-001  1.2493608e+000  1.8373818e+000  2.2397119e+000  2.2397119e+000  1.7290621e+000  1.1410411e+000  5.0659747e-001  2.2806122e-001  1.3521581e-001  2.7448393e-001  2.2806122e-001  1.0426734e-001 -4.0523155e-003 -9.6897731e-002 -1.9526551e-002 -8.1423495e-002 -5.0475023e-002 -8.1423495e-002 -5.0475023e-002 -5.0475023e-002 -5.0475023e-002 -1.9526551e-002 -9.6897731e-002 -1.2784620e-001 -1.2784620e-001 -9.6897731e-002 -5.0475023e-002 -5.0475023e-002 -8.1423495e-002 -1.5879467e-001 -1.1237197e-001 -1.5879467e-001 -1.5879467e-001 -1.1237197e-001 -9.6897731e-002 -1.4332044e-001 -1.4332044e-001 -2.0521738e-001 -1.7426891e-001 -2.2069162e-001 -2.2069162e-001 -1.5879467e-001 -1.7426891e-001 -2.6711433e-001 -2.5164009e-001 -2.3616585e-001 -2.8258856e-001 -2.9806280e-001 -2.8258856e-001 -2.8258856e-001 -3.2901127e-001 -3.2901127e-001 -3.9090821e-001 -3.5995974e-001 -3.5995974e-001 -3.5995974e-001 -3.7543398e-001 -3.9090821e-001 -4.2185668e-001 -4.0638245e-001 -3.5995974e-001 -3.4448551e-001 -4.0638245e-001 -4.5280516e-001 -4.6827939e-001 -4.3733092e-001 -4.0638245e-001 -3.4448551e-001 -4.2185668e-001 -4.3733092e-001 -3.2901127e-001 -3.2901127e-001 -2.9806280e-001 -2.8258856e-001 -2.3616585e-001 -1.8974315e-001 -1.8974315e-001 -1.1237197e-001 -3.5000787e-002 -6.5949259e-002 -1.9526551e-002 -1.1237197e-001 -6.5949259e-002  1.1421920e-002  7.3318864e-002  5.7844628e-002 -1.9526551e-002  8.8793100e-002  5.7844628e-002  2.6896156e-002  8.8793100e-002  5.7844628e-002  8.8793100e-002  2.6896156e-002  5.7844628e-002  4.2370392e-002  8.8793100e-002  4.2370392e-002  7.3318864e-002 -4.0523155e-003  4.2370392e-002  7.3318864e-002  1.1421920e-002 -4.0523155e-003 -1.9526551e-002 -3.5000787e-002 -6.5949259e-002 -5.0475023e-002 -1.9526551e-002 -5.0475023e-002 -6.5949259e-002 -8.1423495e-002 -9.6897731e-002 -4.0523155e-003 -9.6897731e-002 -6.5949259e-002 -3.5000787e-002 -9.6897731e-002 -3.5000787e-002 -6.5949259e-002 -8.1423495e-002 -6.5949259e-002 -3.5000787e-002 -6.5949259e-002 -1.9526551e-002  1.1421920e-002  4.2370392e-002  4.2370392e-002  7.3318864e-002  1.9711275e-001  2.2806122e-001  3.0543240e-001  3.0543240e-001  3.3638087e-001  4.1375205e-001  5.0659747e-001  4.9112323e-001  5.6849441e-001  6.1491712e-001  5.6849441e-001  5.2207171e-001  4.7564900e-001  4.6017476e-001  3.5185511e-001  3.0543240e-001  2.5900969e-001  1.9711275e-001  1.9711275e-001  2.2806122e-001  1.3521581e-001  8.8793100e-002  7.3318864e-002 -1.9526551e-002 -8.1423495e-002 -1.7426891e-001 -1.8974315e-001 -2.2069162e-001 -2.0521738e-001 -1.8974315e-001 -1.5879467e-001 -1.7426891e-001 -2.5164009e-001 -2.3616585e-001 -2.6711433e-001 -2.8258856e-001 -2.2069162e-001 -2.5164009e-001 -2.3616585e-001 -2.5164009e-001 -2.2069162e-001 -2.5164009e-001 -2.0521738e-001 -1.8974315e-001 -2.6711433e-001 -2.3616585e-001 -1.1237197e-001 -1.9526551e-002  1.5069004e-001  4.1375205e-001  8.1608219e-001  1.2029381e+000  1.6207425e+000  2.0540211e+000  2.3325573e+000  2.4563512e+000  2.5182481e+000  2.5646708e+000  2.6420420e+000  2.5646708e+000  2.4408770e+000  2.4099285e+000  2.4408770e+000  2.5337224e+000  2.4408770e+000  2.1932892e+000  1.5897940e+000  1.0172473e+000  6.1491712e-001  6.4586559e-001  1.2338866e+000  1.8528560e+000  2.2551861e+000  2.1623407e+000  1.7135879e+000  1.0636700e+000  4.4470053e-001 -4.0523155e-003 -1.5879467e-001 -1.2784620e-001 -1.5879467e-001 -2.9806280e-001 -2.9806280e-001 -2.8258856e-001 -3.2901127e-001 -3.1353703e-001 -2.8258856e-001 -2.5164009e-001 -2.5164009e-001 -2.3616585e-001 -3.2901127e-001 -3.2901127e-001 -2.8258856e-001 -2.6711433e-001 -2.5164009e-001 -2.6711433e-001 -2.8258856e-001 -2.6711433e-001 -2.3616585e-001 -2.2069162e-001 -2.9806280e-001 -2.8258856e-001 -2.9806280e-001 -2.8258856e-001 -2.0521738e-001 -2.2069162e-001 -2.0521738e-001 -2.6711433e-001 -3.2901127e-001 -3.7543398e-001 -3.2901127e-001 -2.9806280e-001 -2.9806280e-001 -2.6711433e-001 -3.1353703e-001 -3.2901127e-001 -3.4448551e-001 -3.7543398e-001 -3.9090821e-001 -4.2185668e-001 -4.5280516e-001 -3.7543398e-001 -4.0638245e-001 -4.5280516e-001 -4.9922786e-001 -5.3017634e-001 -5.6112481e-001 -5.9207328e-001 -5.4565057e-001 -6.0754752e-001 -5.9207328e-001 -6.6944446e-001 -6.2302175e-001 -5.7659904e-001 -5.9207328e-001 -6.5397022e-001 -7.3134140e-001 -6.3849599e-001 -6.2302175e-001 -6.6944446e-001 -6.0754752e-001 -5.6112481e-001 -5.7659904e-001 -5.4565057e-001 -4.9922786e-001 -4.3733092e-001 -4.0638245e-001 -4.2185668e-001 -3.1353703e-001 -2.5164009e-001 -3.1353703e-001 -1.8974315e-001 -2.2069162e-001 -1.8974315e-001 -2.0521738e-001 -1.5879467e-001 -1.4332044e-001 -6.5949259e-002 -6.5949259e-002 -6.5949259e-002 -9.6897731e-002 -3.5000787e-002 -5.0475023e-002 -9.6897731e-002 -1.1237197e-001 -9.6897731e-002 -5.0475023e-002 -9.6897731e-002 -9.6897731e-002 -1.1237197e-001
  1.0000000e+000  6.4546990e-001  5.9547777e-001  5.8833603e-001  5.7405256e-001  5.3834389e-001  5.2406043e-001  4.8121002e-001  5.1691869e-001  4.7406829e-001  4.7406829e-001  4.8121002e-001  4.5978482e-001  4.7406829e-001  4.5264309e-001  4.6692656e-001  4.5978482e-001  4.7406829e-001  4.9549349e-001  4.9549349e-001  4.7406829e-001  4.8835176e-001  4.8121002e-001  5.0263523e-001  5.0263523e-001  4.8121002e-001  4.8121002e-001  4.8121002e-001  4.6692656e-001  4.7406829e-001  4.8121002e-001  4.7406829e-001  4.5978482e-001  4.8121002e-001  4.8121002e-001  4.6692656e-001  4.5978482e-001  4.9549349e-001  4.7406829e-001  4.7406829e-001  4.8121002e-001  4.6692656e-001  4.3835962e-001  4.4550136e-001  4.3835962e-001  4.1693442e-001  3.9550922e-001  4.0265095e-001  3.9550922e-001  3.8122575e-001  4.0979269e-001  3.8122575e-001  4.0265095e-001  3.8122575e-001  3.7408402e-001  3.4551708e-001  3.6694228e-001  3.3123361e-001  3.5980055e-001  3.6694228e-001  3.8122575e-001  3.7408402e-001  3.4551708e-001  3.5265882e-001  3.1695015e-001  3.5265882e-001  3.2409188e-001  3.2409188e-001  3.4551708e-001  3.5265882e-001  3.4551708e-001  3.3837535e-001  3.1695015e-001  3.0980841e-001  3.3837535e-001  3.0980841e-001  2.9552495e-001  2.8124148e-001  3.0980841e-001  3.0980841e-001  2.8838321e-001  3.0266668e-001  3.3123361e-001  3.0980841e-001  2.8838321e-001  3.0266668e-001  2.8124148e-001  2.8838321e-001  2.8838321e-001  3.0980841e-001  3.2409188e-001  3.4551708e-001  3.3837535e-001  3.5980055e-001  4.0265095e-001  3.9550922e-001  4.5978482e-001  4.1693442e-001  4.1693442e-001  3.9550922e-001  4.0265095e-001  3.6694228e-001  3.7408402e-001  3.0980841e-001  2.7409974e-001  2.4553281e-001  2.6695801e-001  2.7409974e-001  2.5267454e-001  2.3839107e-001  2.5267454e-001  2.5267454e-001  2.3124934e-001  2.3124934e-001  2.5267454e-001  2.5981628e-001  2.5267454e-001  2.4553281e-001  2.5981628e-001  2.3839107e-001  2.5267454e-001  2.2410761e-001  2.4553281e-001  2.2410761e-001  2.0982414e-001  2.3124934e-001  2.2410761e-001  2.0982414e-001  2.2410761e-001  2.0982414e-001  2.2410761e-001  2.2410761e-001  2.2410761e-001  1.9554067e-001  2.0982414e-001  2.0982414e-001  2.3839107e-001  2.4553281e-001  1.9554067e-001  2.3839107e-001  2.2410761e-001  2.1696587e-001  1.8839894e-001  2.1696587e-001  2.0268241e-001  1.8125720e-001  2.1696587e-001  2.5981628e-001  3.3837535e-001  2.4553281e-001 -1.9725469e-001 -9.8998714e-001 -1.8255700e+000 -2.5540268e+000 -3.0610899e+000 -3.3753262e+000 -3.6110035e+000 -3.7109877e+000 -3.7609799e+000 -3.7038460e+000 -3.4610270e+000 -3.1824994e+000 -2.8468379e+000 -2.6325859e+000 -2.4540426e+000 -2.4040504e+000 -2.2826410e+000 -2.0969559e+000 -1.7612944e+000 -1.3613573e+000 -9.8284541e-001 -6.4718392e-001 -4.1150670e-001 -1.9725469e-001 -2.5853076e-002  1.7411547e-001  3.6694228e-001  5.2406043e-001  6.1690297e-001  6.4546990e-001  6.3832817e-001  6.3832817e-001  6.2404470e-001  6.6689510e-001  6.6689510e-001  6.6689510e-001  6.5261164e-001  6.6689510e-001  6.9546204e-001  6.6689510e-001  7.1688724e-001  7.1688724e-001  7.1688724e-001  7.3117071e-001  7.1688724e-001  7.5973764e-001  7.5259591e-001  7.5259591e-001  7.8116284e-001  7.4545418e-001  7.8830458e-001  7.8830458e-001  8.1687151e-001  7.8116284e-001  8.0972978e-001  8.2401325e-001  8.5972192e-001  8.4543845e-001  8.5972192e-001  8.5258018e-001  8.3829672e-001  8.9543059e-001  9.2399752e-001  8.8828885e-001  8.9543059e-001  9.0971405e-001  9.3828099e-001  9.2399752e-001  9.6684792e-001  9.8113139e-001  9.9541486e-001  1.0239818e+000  1.0025566e+000  1.0382653e+000  1.0596905e+000  1.0525487e+000  1.0811157e+000  1.1311078e+000  1.1382495e+000  1.1239661e+000  1.1239661e+000  1.2025251e+000  1.1882417e+000  1.1810999e+000  1.2096669e+000  1.2310921e+000  1.2525173e+000  1.2453755e+000  1.2882259e+000  1.3025094e+000  1.3096511e+000  1.2953677e+000  1.3239346e+000  1.3239346e+000  1.3667850e+000  1.3596433e+000  1.3525015e+000  1.3453598e+000  1.3453598e+000  1.3525015e+000  1.3382181e+000  1.3025094e+000  1.2739425e+000  1.2596590e+000  1.1953834e+000  1.1739582e+000  1.1453913e+000  1.1025409e+000  1.0525487e+000  1.0311235e+000  9.9541486e-001  9.3828099e-001  8.4543845e-001  8.3829672e-001  7.3831244e-001  7.1688724e-001  6.5261164e-001  6.2404470e-001  5.6691083e-001  5.1691869e-001  4.9549349e-001  4.5264309e-001  4.3121789e-001  3.8836748e-001  3.9550922e-001  3.3123361e-001  3.3837535e-001  3.4551708e-001  2.8838321e-001  2.8838321e-001  2.8124148e-001  2.5981628e-001  3.0266668e-001  2.7409974e-001  2.8124148e-001  2.5981628e-001  2.6695801e-001  2.8838321e-001  2.7409974e-001  2.5981628e-001  2.7409974e-001  2.6695801e-001  2.8838321e-001  2.6695801e-001  2.7409974e-001  2.8124148e-001  2.5981628e-001  2.6695801e-001  2.6695801e-001  2.7409974e-001  2.8838321e-001  2.6695801e-001  2.3839107e-001  2.8124148e-001  2.3839107e-001  2.5267454e-001  2.5267454e-001  2.4553281e-001  2.4553281e-001  2.2410761e-001  2.5267454e-001  2.3124934e-001  2.0268241e-001  2.0982414e-001  2.4553281e-001  1.8125720e-001  2.0268241e-001  1.8839894e-001  1.8125720e-001  1.5983200e-001  1.8125720e-001  1.5983200e-001  1.6697374e-001  1.5983200e-001  1.5269027e-001  1.4554854e-001  1.2412333e-001  1.0983987e-001  1.4554854e-001  1.0983987e-001  1.2412333e-001  1.1698160e-001  1.0983987e-001  9.5556398e-002  9.5556398e-002  9.5556398e-002  1.0269813e-001  8.8414665e-002  8.8414665e-002  7.4131197e-002  8.1272931e-002  5.9847729e-002  3.8422528e-002  5.9847729e-002  4.5564262e-002  5.9847729e-002  2.4139060e-002  3.8422528e-002  2.4139060e-002  2.7138588e-003  3.1280794e-002  3.1280794e-002  9.8555927e-003  1.6997326e-002  3.1280794e-002  9.8555927e-003  1.6997326e-002  3.8422528e-002  4.5564262e-002  5.9847729e-002  3.8422528e-002  1.0269813e-001  1.3840680e-001  1.1698160e-001  1.3840680e-001  1.5269027e-001  1.3126507e-001  1.0983987e-001  1.0983987e-001  8.8414665e-002  5.2705996e-002  5.9847729e-002 -1.1569609e-002 -1.1569609e-002  2.7138588e-003 -1.1569609e-002 -3.2994810e-002 -4.4278750e-003 -4.0136544e-002 -5.4420012e-002 -8.2986947e-002 -6.8703479e-002 -3.2994810e-002 -4.7278278e-002 -5.4420012e-002 -2.5853076e-002 -4.7278278e-002 -6.8703479e-002 -6.8703479e-002 -4.7278278e-002 -9.0128681e-002 -5.4420012e-002 -4.7278278e-002 -5.4420012e-002 -5.4420012e-002 -6.8703479e-002 -5.4420012e-002 -7.5845213e-002 -5.4420012e-002 -7.5845213e-002 -9.0128681e-002 -1.0441215e-001 -8.2986947e-002 -1.0441215e-001 -1.0441215e-001 -9.7270415e-002 -1.0441215e-001 -1.1869562e-001 -1.2583735e-001 -1.0441215e-001 -1.2583735e-001 -1.1155388e-001 -1.3297908e-001 -1.5440429e-001 -1.4726255e-001 -1.2583735e-001 -3.2994810e-002 -1.1569609e-002 -1.9011295e-001 -7.9001859e-001 -1.6684519e+000 -2.5254599e+000 -3.1682160e+000 -3.6110035e+000 -3.8752476e+000 -4.0395075e+000 -4.1466335e+000 -4.1466335e+000 -4.0323657e+000 -3.8038303e+000 -3.5038774e+000 -3.2324916e+000 -2.9968143e+000 -2.8825466e+000 -2.7682789e+000 -2.6682946e+000 -2.4611843e+000 -2.1255228e+000 -1.7327275e+000 -1.3042234e+000 -9.6142021e-001 -7.1860126e-001 -5.4005791e-001 -3.4008936e-001 -1.5440429e-001  8.1272931e-002  2.3124934e-001  3.0266668e-001  2.9552495e-001  2.9552495e-001  2.8124148e-001  3.0266668e-001  3.1695015e-001  2.8838321e-001  3.1695015e-001  2.9552495e-001  3.4551708e-001  3.3837535e-001  3.6694228e-001  3.5265882e-001  3.6694228e-001  3.6694228e-001  3.6694228e-001  3.7408402e-001  3.8122575e-001  3.6694228e-001  3.8836748e-001  4.0265095e-001  3.8122575e-001  3.8836748e-001  4.2407615e-001  4.0265095e-001  4.1693442e-001  4.7406829e-001  4.3121789e-001  4.5264309e-001  4.8121002e-001  4.9549349e-001  4.5978482e-001  4.7406829e-001  5.1691869e-001  5.4548563e-001  5.5976910e-001  5.0263523e-001  5.4548563e-001  5.4548563e-001  5.8119430e-001  5.8119430e-001  6.0261950e-001  6.1690297e-001  6.3832817e-001  6.5975337e-001  6.4546990e-001  6.8117857e-001  6.8117857e-001  7.3831244e-001  7.2402897e-001  7.0974551e-001  7.8830458e-001  7.8830458e-001  8.0972978e-001  7.9544631e-001  8.3115498e-001  8.3829672e-001  8.6686365e-001  8.6686365e-001  8.8828885e-001  8.8828885e-001  9.1685579e-001  9.0971405e-001  9.1685579e-001  9.1685579e-001  9.5256446e-001  9.3828099e-001  9.4542272e-001  9.6684792e-001  9.4542272e-001  9.3828099e-001  9.1685579e-001  9.2399752e-001  9.0257232e-001  8.7400538e-001  8.1687151e-001  8.0258805e-001  7.7402111e-001  7.0974551e-001  6.6689510e-001  6.2404470e-001  5.8119430e-001  5.5262736e-001  4.8835176e-001  4.2407615e-001  3.6694228e-001  3.3123361e-001  2.6695801e-001  2.2410761e-001  1.5983200e-001  1.1698160e-001  6.6989463e-002  2.4139060e-002  2.7138588e-003 -6.8703479e-002 -7.5845213e-002 -9.0128681e-002 -1.1155388e-001 -1.2583735e-001 -1.4012082e-001 -1.4726255e-001 -1.9725469e-001 -1.9011295e-001 -1.6154602e-001 -2.1153816e-001 -2.1153816e-001 -2.2582162e-001 -2.1153816e-001 -2.1153816e-001 -2.1867989e-001 -2.2582162e-001 -2.1867989e-001 -2.1153816e-001 -1.9725469e-001 -1.9725469e-001 -2.1867989e-001 -1.9011295e-001 -1.9725469e-001 -2.0439642e-001 -1.8297122e-001 -1.9725469e-001 -1.9011295e-001 -2.1867989e-001 -1.9725469e-001 -2.1153816e-001 -2.2582162e-001 -2.2582162e-001 -2.4724682e-001 -2.3296336e-001 -2.4010509e-001 -2.3296336e-001 -2.4724682e-001 -2.6867203e-001 -2.7581376e-001 -2.8295549e-001 -2.6153029e-001 -3.0438070e-001 -2.9723896e-001 -3.1152243e-001 -3.0438070e-001 -3.1866416e-001 -3.4008936e-001 -3.4723110e-001 -3.4723110e-001 -3.4008936e-001 -3.6151457e-001 -3.9008150e-001 -3.8293977e-001 -3.6865630e-001 -3.9008150e-001 -3.6865630e-001 -3.9008150e-001 -4.1150670e-001 -3.9722323e-001 -3.9722323e-001 -4.0436497e-001 -4.0436497e-001 -4.1150670e-001 -3.9722323e-001 -4.1864844e-001 -4.4007364e-001 -4.4721537e-001 -4.4721537e-001 -4.4007364e-001 -4.3293190e-001 -4.8292404e-001 -4.5435711e-001 -4.4007364e-001 -4.4721537e-001 -4.6864057e-001 -4.4721537e-001 -4.1864844e-001 -4.4007364e-001 -4.3293190e-001 -4.6864057e-001 -4.4721537e-001 -4.5435711e-001 -4.8292404e-001 -4.6149884e-001 -4.7578231e-001 -4.8292404e-001 -4.6864057e-001 -4.6864057e-001 -4.4721537e-001 -4.4007364e-001 -4.0436497e-001 -3.8293977e-001 -3.3294763e-001 -3.3294763e-001 -3.2580590e-001 -3.3294763e-001 -3.1152243e-001 -3.5437283e-001 -3.7579803e-001 -3.7579803e-001 -3.7579803e-001 -4.3293190e-001 -4.6149884e-001 -4.7578231e-001 -4.6864057e-001 -4.6149884e-001 -4.8292404e-001 -4.6864057e-001 -4.7578231e-001 -4.9720751e-001 -5.0434924e-001 -5.1149098e-001 -5.1149098e-001 -5.3291618e-001 -5.0434924e-001 -4.8292404e-001 -5.1149098e-001 -4.9006577e-001 -4.8292404e-001 -5.1863271e-001 -5.2577444e-001 -5.0434924e-001 -5.4719964e-001 -5.2577444e-001 -4.9720751e-001 -5.2577444e-001 -5.3291618e-001 -5.2577444e-001 -5.3291618e-001 -5.1863271e-001 -5.2577444e-001 -5.1863271e-001 -5.1863271e-001 -5.1149098e-001 -5.1149098e-001 -5.4005791e-001 -4.8292404e-001 -5.2577444e-001 -5.0434924e-001 -5.0434924e-001 -5.2577444e-001 -5.0434924e-001 -5.0434924e-001 -5.3291618e-001 -5.6862485e-001 -4.9006577e-001 -4.0436497e-001 -4.1864844e-001 -7.9001859e-001 -1.5327589e+000 -2.4326174e+000 -3.2396333e+000 -3.8252555e+000 -4.1394918e+000 -4.3751690e+000 -4.4751532e+000 -4.5679958e+000 -4.5394288e+000 -4.3751690e+000 -4.1180666e+000 -3.8609641e+000 -3.5681530e+000 -3.3824680e+000 -3.2896254e+000 -3.2039246e+000 -3.0325230e+000 -2.7111450e+000 -2.2897827e+000 -1.8184283e+000 -1.4399164e+000 -1.1399636e+000 -9.4713674e-001 -7.4716819e-001 -5.5434138e-001 -3.4008936e-001 -1.9725469e-001 -5.4420012e-002 -1.1569609e-002  2.7138588e-003 -1.1569609e-002 -4.0136544e-002  2.7138588e-003 -4.4278750e-003  9.8555927e-003  1.6997326e-002  3.1280794e-002  3.1280794e-002  3.1280794e-002  5.9847729e-002  4.5564262e-002  7.4131197e-002  8.8414665e-002  1.0983987e-001  1.1698160e-001  9.5556398e-002  1.5269027e-001  1.4554854e-001  1.6697374e-001  1.5269027e-001  1.6697374e-001  1.8125720e-001  2.0982414e-001  2.3124934e-001  2.4553281e-001  2.3124934e-001  2.5981628e-001  2.3839107e-001  2.5981628e-001  2.4553281e-001  2.6695801e-001  2.7409974e-001  2.8124148e-001  3.3123361e-001  3.4551708e-001  3.2409188e-001  3.5980055e-001  3.9550922e-001  3.6694228e-001  4.1693442e-001  4.1693442e-001  4.3835962e-001  4.6692656e-001  5.0263523e-001  5.3120216e-001  5.0977696e-001  5.2406043e-001  5.7405256e-001  5.8119430e-001  5.9547777e-001  6.2404470e-001  6.3118643e-001  6.3832817e-001  6.7403684e-001  6.5975337e-001  7.0974551e-001  7.0260377e-001  7.3831244e-001  7.5259591e-001  7.7402111e-001  7.5973764e-001  7.6687938e-001  7.8830458e-001  7.9544631e-001  8.2401325e-001  8.0258805e-001  7.9544631e-001  8.0972978e-001  8.0972978e-001  7.9544631e-001  7.8830458e-001  7.5973764e-001  7.1688724e-001  6.8832031e-001  6.5975337e-001  6.1690297e-001  5.5262736e-001  5.1691869e-001  5.1691869e-001  4.3835962e-001  3.6694228e-001  3.1695015e-001  2.3839107e-001  2.3839107e-001  1.7411547e-001  8.8414665e-002  3.1280794e-002  3.1280794e-002 -4.0136544e-002 -8.2986947e-002 -1.1869562e-001 -1.5440429e-001 -1.8297122e-001 -2.0439642e-001 -2.2582162e-001 -2.6153029e-001 -2.6867203e-001 -2.7581376e-001 -2.8295549e-001 -2.9723896e-001 -2.9009723e-001 -3.1866416e-001 -3.1152243e-001 -3.3294763e-001 -3.4008936e-001 -3.1152243e-001 -3.1866416e-001 -3.3294763e-001 -3.0438070e-001 -3.1152243e-001 -2.8295549e-001 -3.0438070e-001 -2.9723896e-001 -2.9723896e-001 -2.7581376e-001 -2.9009723e-001 -2.4724682e-001 -2.6867203e-001 -2.4724682e-001 -2.4724682e-001 -2.6867203e-001 -2.7581376e-001 -2.8295549e-001 -2.5438856e-001 -2.7581376e-001 -2.6867203e-001 -2.7581376e-001 -2.9723896e-001 -3.1152243e-001 -2.9723896e-001 -2.9009723e-001 -3.1152243e-001 -3.1152243e-001 -3.1866416e-001 -3.1152243e-001 -3.3294763e-001 -3.1866416e-001 -3.5437283e-001 -3.4008936e-001 -3.6151457e-001 -3.8293977e-001 -3.6865630e-001 -3.4723110e-001 -3.5437283e-001 -3.4723110e-001 -3.6865630e-001 -3.7579803e-001 -3.9722323e-001 -3.6865630e-001 -3.5437283e-001 -3.6151457e-001 -3.9008150e-001 -3.7579803e-001 -3.6865630e-001 -3.9722323e-001 -3.9722323e-001 -3.8293977e-001 -3.9722323e-001 -3.7579803e-001 -3.7579803e-001 -3.8293977e-001 -3.6865630e-001 -3.9008150e-001 -3.4723110e-001 -3.8293977e-001 -3.5437283e-001 -3.6151457e-001 -3.7579803e-001 -3.5437283e-001 -3.7579803e-001 -3.7579803e-001 -3.8293977e-001 -3.6865630e-001 -3.7579803e-001 -3.9008150e-001 -3.6865630e-001 -3.5437283e-001 -3.6151457e-001 -3.4008936e-001 -3.1866416e-001 -2.9009723e-001 -2.6867203e-001 -2.1867989e-001 -2.1867989e-001 -1.8297122e-001 -1.9011295e-001 -1.8297122e-001 -1.7582949e-001 -2.2582162e-001 -1.9725469e-001 -2.3296336e-001 -2.5438856e-001 -2.9723896e-001 -3.1866416e-001 -3.1152243e-001 -3.0438070e-001 -3.1866416e-001 -3.1866416e-001 -3.3294763e-001 -3.4723110e-001 -3.3294763e-001 -3.4723110e-001 -3.4008936e-001 -3.6151457e-001 -3.2580590e-001 -3.4008936e-001 -3.1866416e-001 -3.0438070e-001 -3.1152243e-001 -3.4008936e-001 -3.0438070e-001 -3.1152243e-001 -3.2580590e-001 -3.3294763e-001 -3.3294763e-001 -3.4008936e-001 -3.6151457e-001 -3.6151457e-001 -3.1866416e-001 -2.9723896e-001 -3.1152243e-001 -3.1866416e-001 -3.1152243e-001 -3.2580590e-001 -3.1152243e-001 -3.1152243e-001 -3.1152243e-001 -3.1152243e-001 -3.1866416e-001 -3.1152243e-001 -3.2580590e-001 -3.4008936e-001 -3.3294763e-001 -3.8293977e-001 -3.4723110e-001 -3.2580590e-001 -2.4724682e-001 -2.0439642e-001 -3.6151457e-001 -9.1142807e-001 -1.8255700e+000 -2.7397119e+000 -3.4610270e+000 -3.9252397e+000 -4.2251926e+000 -4.4037359e+000 -4.5037202e+000 -4.5180036e+000 -4.3965942e+000 -4.1680587e+000 -3.8609641e+000 -3.5610113e+000 -3.3467593e+000 -3.2110664e+000 -3.0967986e+000 -2.9611057e+000 -2.6682946e+000 -2.2397906e+000 -1.7827196e+000 -1.3542156e+000 -1.0471210e+000 -7.9001859e-001 -6.0433352e-001 -4.1864844e-001 -1.3297908e-001  5.2705996e-002  2.0268241e-001  2.8838321e-001  2.7409974e-001  2.6695801e-001  2.3124934e-001  2.6695801e-001  2.5981628e-001  2.8124148e-001  3.0266668e-001  3.2409188e-001  3.2409188e-001  3.1695015e-001  3.5265882e-001  3.3837535e-001  3.4551708e-001  3.7408402e-001  3.8122575e-001  3.7408402e-001  3.6694228e-001  4.3835962e-001  4.2407615e-001  4.3121789e-001  4.1693442e-001  4.3835962e-001  4.3835962e-001  4.6692656e-001  4.8121002e-001  4.8835176e-001  5.1691869e-001  5.2406043e-001  5.0263523e-001  5.0263523e-001  5.3834389e-001  5.7405256e-001  5.8119430e-001  5.5262736e-001  5.9547777e-001  6.0261950e-001  5.8833603e-001  6.2404470e-001  6.5975337e-001  6.6689510e-001  6.7403684e-001  7.0974551e-001  7.3117071e-001  7.4545418e-001  7.5259591e-001  8.0972978e-001  8.0972978e-001  8.3829672e-001  8.5258018e-001  8.3829672e-001  9.0257232e-001  9.3828099e-001  9.2399752e-001  9.7398966e-001  9.7398966e-001  9.6684792e-001  9.8827313e-001  1.0096983e+000  1.0096983e+000  1.0811157e+000  1.0668322e+000  1.0668322e+000  1.1096826e+000  1.1025409e+000  1.0882574e+000  1.1025409e+000  1.1168243e+000  1.0882574e+000  1.1239661e+000  1.1096826e+000  1.0953991e+000  1.0882574e+000  1.0811157e+000  1.0525487e+000  9.9541486e-001  9.8113139e-001  9.0257232e-001  8.8114712e-001  8.2401325e-001  8.2401325e-001  7.2402897e-001  6.8117857e-001  6.0261950e-001  5.3834389e-001  5.0977696e-001  4.5978482e-001  3.9550922e-001  3.4551708e-001  2.9552495e-001  2.5981628e-001  2.1696587e-001  1.8839894e-001  1.1698160e-001  1.3126507e-001  5.9847729e-002  3.1280794e-002  1.6997326e-002  2.7138588e-003  1.6997326e-002 -4.4278750e-003 -4.7278278e-002 -1.8711343e-002 -2.5853076e-002 -2.5853076e-002 -4.7278278e-002  2.7138588e-003 -4.4278750e-003 -3.2994810e-002 -1.1569609e-002 -1.8711343e-002  2.7138588e-003  2.7138588e-003 -1.8711343e-002 -4.0136544e-002 -2.5853076e-002 -3.2994810e-002  1.6997326e-002  3.1280794e-002 -1.8711343e-002  2.4139060e-002  2.7138588e-003  1.6997326e-002  9.8555927e-003  2.7138588e-003 -4.4278750e-003 -1.1569609e-002 -4.4278750e-003 -1.1569609e-002 -4.7278278e-002 -3.2994810e-002 -5.4420012e-002 -6.1561745e-002 -6.1561745e-002 -4.7278278e-002 -7.5845213e-002 -6.1561745e-002 -5.4420012e-002 -9.7270415e-002 -7.5845213e-002 -1.0441215e-001 -9.0128681e-002 -9.7270415e-002 -1.0441215e-001 -8.2986947e-002 -1.1869562e-001 -1.2583735e-001 -1.1869562e-001 -8.2986947e-002 -1.1155388e-001 -9.7270415e-002 -1.2583735e-001 -1.3297908e-001 -1.4012082e-001 -1.3297908e-001 -8.2986947e-002 -1.2583735e-001 -1.1155388e-001 -1.1155388e-001 -8.2986947e-002 -1.4726255e-001 -1.3297908e-001 -1.1155388e-001 -1.5440429e-001 -1.1155388e-001 -9.7270415e-002 -1.1869562e-001 -1.3297908e-001 -1.1869562e-001 -1.1869562e-001 -1.2583735e-001 -1.2583735e-001 -1.0441215e-001 -1.1155388e-001 -1.0441215e-001 -1.0441215e-001 -1.4012082e-001 -1.0441215e-001 -7.5845213e-002 -2.5853076e-002 -2.5853076e-002  2.7138588e-003  1.6997326e-002  3.8422528e-002  3.8422528e-002  4.5564262e-002  3.8422528e-002  1.6997326e-002  3.8422528e-002  2.7138588e-003 -2.5853076e-002 -3.2994810e-002 -6.1561745e-002 -6.8703479e-002 -1.1869562e-001 -9.7270415e-002 -1.1155388e-001 -1.0441215e-001 -1.1155388e-001 -1.2583735e-001 -1.4012082e-001 -1.2583735e-001 -1.0441215e-001 -9.7270415e-002 -1.0441215e-001 -9.7270415e-002 -1.1869562e-001 -1.1155388e-001 -1.0441215e-001 -1.1869562e-001 -9.7270415e-002 -1.1155388e-001 -1.2583735e-001 -1.4726255e-001 -9.7270415e-002 -1.1869562e-001 -1.2583735e-001 -1.3297908e-001 -1.3297908e-001 -1.1869562e-001 -1.2583735e-001 -1.0441215e-001 -1.2583735e-001 -1.1869562e-001 -1.2583735e-001 -9.7270415e-002 -9.0128681e-002 -1.2583735e-001 -1.1155388e-001 -1.1869562e-001 -1.0441215e-001 -1.1869562e-001 -1.1869562e-001 -1.3297908e-001 -1.1155388e-001 -4.7278278e-002  5.9847729e-002 -7.5845213e-002 -6.4718392e-001 -1.5327589e+000 -2.4469008e+000 -3.2610585e+000 -3.8181137e+000 -4.1252083e+000 -4.2823264e+000 -4.3894524e+000 -4.4180194e+000 -4.3680272e+000 -4.1394918e+000 -3.8252555e+000 -3.5038774e+000 -3.2682002e+000 -3.1110821e+000 -3.0110978e+000 -2.8611214e+000 -2.5968772e+000 -2.2112236e+000 -1.7398692e+000 -1.2827982e+000 -9.3285327e-001 -6.6860912e-001 -4.6149884e-001 -2.3296336e-001 -1.8711343e-002  2.1696587e-001  4.0265095e-001  4.5264309e-001  4.7406829e-001  4.8121002e-001  4.5978482e-001  4.5978482e-001  4.7406829e-001  4.5978482e-001  5.5262736e-001  5.4548563e-001  5.4548563e-001  5.5976910e-001  5.8119430e-001  5.5976910e-001  5.8119430e-001  5.7405256e-001  5.8833603e-001  5.9547777e-001  6.1690297e-001  6.3118643e-001  6.1690297e-001  6.3832817e-001  6.4546990e-001  6.3832817e-001  6.5975337e-001  6.5975337e-001  6.9546204e-001  6.9546204e-001  7.0974551e-001  6.9546204e-001  7.5973764e-001  7.7402111e-001  7.5973764e-001  7.8116284e-001  7.5259591e-001  8.0972978e-001  8.2401325e-001  8.0972978e-001  8.8114712e-001  8.5972192e-001  8.9543059e-001  8.8828885e-001  9.3113925e-001  9.3828099e-001  9.7398966e-001  9.7398966e-001  1.0025566e+000  1.0096983e+000  1.0239818e+000  1.0454070e+000  1.0811157e+000  1.0882574e+000  1.0882574e+000  1.1096826e+000  1.1453913e+000  1.1739582e+000  1.2025251e+000  1.1882417e+000  1.2025251e+000  1.2096669e+000  1.2525173e+000  1.2525173e+000  1.2739425e+000  1.2882259e+000  1.3167929e+000  1.3167929e+000  1.3453598e+000  1.3167929e+000  1.3382181e+000  1.3453598e+000  1.3453598e+000  1.3310763e+000  1.3453598e+000  1.3167929e+000  1.3096511e+000  1.2739425e+000  1.2668007e+000  1.2025251e+000  1.1668165e+000  1.1311078e+000  1.0454070e+000  1.0311235e+000  9.7398966e-001  9.3828099e-001  8.7400538e-001  7.9544631e-001  7.6687938e-001  6.8832031e-001  6.0976123e-001  5.6691083e-001  5.1691869e-001  4.3835962e-001  3.9550922e-001  3.5980055e-001  2.9552495e-001  2.5981628e-001  2.2410761e-001  2.0268241e-001  2.1696587e-001  1.3840680e-001  1.3840680e-001  1.4554854e-001  1.2412333e-001  1.0983987e-001  7.4131197e-002  6.6989463e-002  9.5556398e-002  8.8414665e-002  9.5556398e-002  8.8414665e-002  9.5556398e-002  8.8414665e-002  9.5556398e-002  1.3126507e-001  1.0269813e-001  1.0269813e-001  1.1698160e-001  1.2412333e-001  1.3126507e-001  1.0983987e-001  1.3126507e-001  1.5983200e-001  1.4554854e-001  8.8414665e-002  1.0983987e-001  1.3840680e-001  1.3840680e-001  1.4554854e-001  1.2412333e-001  9.5556398e-002  1.0983987e-001  1.1698160e-001  1.1698160e-001  6.6989463e-002  1.0269813e-001  1.2412333e-001  7.4131197e-002  6.6989463e-002  6.6989463e-002  3.1280794e-002  5.9847729e-002  3.8422528e-002  2.4139060e-002  3.1280794e-002  2.4139060e-002  3.8422528e-002  9.8555927e-003  9.8555927e-003  1.6997326e-002  9.8555927e-003  1.6997326e-002  9.8555927e-003  2.7138588e-003 -1.8711343e-002 -1.8711343e-002 -4.4278750e-003  2.7138588e-003 -4.4278750e-003 -4.4278750e-003  2.7138588e-003 -1.8711343e-002 -4.4278750e-003  2.7138588e-003  1.6997326e-002 -3.2994810e-002 -2.5853076e-002 -1.8711343e-002 -2.5853076e-002 -2.5853076e-002 -4.4278750e-003 -4.4278750e-003 -4.7278278e-002 -1.1569609e-002 -4.4278750e-003 -1.1569609e-002 -4.4278750e-003 -3.2994810e-002 -3.2994810e-002 -3.2994810e-002 -2.5853076e-002  9.8555927e-003 -1.1569609e-002 -2.5853076e-002 -4.4278750e-003 -1.1569609e-002 -4.4278750e-003  1.6997326e-002  6.6989463e-002  8.8414665e-002  1.1698160e-001  1.3126507e-001  1.5983200e-001  1.7411547e-001  1.3126507e-001  1.4554854e-001  1.1698160e-001  1.0269813e-001  8.8414665e-002  5.9847729e-002  1.6997326e-002 -2.5853076e-002 -4.4278750e-003 -1.8711343e-002 -3.2994810e-002 -3.2994810e-002 -4.0136544e-002 -4.0136544e-002 -6.1561745e-002 -4.7278278e-002 -5.4420012e-002 -4.7278278e-002 -4.7278278e-002 -2.5853076e-002 -4.0136544e-002 -4.7278278e-002 -4.0136544e-002 -5.4420012e-002 -3.2994810e-002 -6.1561745e-002 -4.7278278e-002 -4.0136544e-002 -6.1561745e-002 -5.4420012e-002 -3.2994810e-002 -5.4420012e-002 -4.0136544e-002 -4.0136544e-002 -4.7278278e-002 -6.8703479e-002 -5.4420012e-002 -7.5845213e-002 -3.2994810e-002 -4.7278278e-002 -4.0136544e-002 -3.2994810e-002 -1.8711343e-002 -3.2994810e-002 -3.2994810e-002 -3.2994810e-002 -6.1561745e-002 -6.8703479e-002 -6.1561745e-002 -4.4278750e-003  9.5556398e-002  5.2705996e-002 -3.5437283e-001 -1.1756722e+000 -2.0898141e+000 -3.0039561e+000 -3.7752633e+000 -4.1537752e+000 -4.4108776e+000 -4.5822793e+000 -4.6251297e+000 -4.6394131e+000 -4.4680115e+000 -4.1752004e+000 -3.8395389e+000 -3.5538696e+000 -3.3181924e+000 -3.2110664e+000 -3.0967986e+000 -2.9468222e+000 -2.6254442e+000 -2.1897984e+000 -1.6684519e+000 -1.1970974e+000 -8.3286900e-001 -5.6862485e-001 -3.6865630e-001 -1.4726255e-001  1.2412333e-001  3.0266668e-001  4.4550136e-001  5.3120216e-001  5.4548563e-001  5.2406043e-001  5.4548563e-001  5.5262736e-001  5.4548563e-001  5.7405256e-001  6.1690297e-001  6.0261950e-001  6.0976123e-001  6.1690297e-001  6.0976123e-001  6.1690297e-001  6.5261164e-001  6.3118643e-001  6.3832817e-001  6.5261164e-001  6.6689510e-001  6.8117857e-001  6.8832031e-001  6.8117857e-001  7.0974551e-001  6.9546204e-001  6.9546204e-001  7.0974551e-001  7.3831244e-001  7.4545418e-001  7.6687938e-001  7.3831244e-001  7.8830458e-001  8.0258805e-001  8.2401325e-001  8.4543845e-001  8.3115498e-001  8.5258018e-001  8.8114712e-001  9.0971405e-001  9.1685579e-001  9.3828099e-001  9.3113925e-001  9.2399752e-001  9.8113139e-001  1.0025566e+000  1.0168401e+000  1.0025566e+000  1.0525487e+000  1.0739739e+000  1.0668322e+000  1.1025409e+000  1.1025409e+000  1.1453913e+000  1.1953834e+000  1.1810999e+000  1.2025251e+000  1.2310921e+000  1.2239503e+000  1.2739425e+000  1.2739425e+000  1.2668007e+000  1.3167929e+000  1.3525015e+000  1.3382181e+000  1.3739268e+000  1.3667850e+000  1.4024937e+000  1.3667850e+000  1.3810685e+000  1.3953520e+000  1.3739268e+000  1.4239189e+000  1.4167772e+000  1.3882102e+000  1.3453598e+000  1.3239346e+000  1.2739425e+000  1.2668007e+000  1.2168086e+000  1.1668165e+000  1.1096826e+000  1.0382653e+000  9.8113139e-001  9.5970619e-001  8.8114712e-001  8.0972978e-001  7.3831244e-001  6.6689510e-001  6.1690297e-001  5.0977696e-001  4.7406829e-001  4.3835962e-001  3.7408402e-001  3.0980841e-001  2.8838321e-001  2.4553281e-001  1.8839894e-001  1.6697374e-001  1.5269027e-001  1.3840680e-001  8.8414665e-002  8.8414665e-002  7.4131197e-002  5.9847729e-002  6.6989463e-002  5.9847729e-002  3.1280794e-002  3.8422528e-002  6.6989463e-002  6.6989463e-002  6.6989463e-002  5.2705996e-002  5.2705996e-002  7.4131197e-002  8.8414665e-002  9.5556398e-002  5.9847729e-002  6.6989463e-002  8.8414665e-002  8.1272931e-002  5.9847729e-002  6.6989463e-002  1.1698160e-001  9.5556398e-002  8.1272931e-002  8.8414665e-002  6.6989463e-002  4.5564262e-002  8.8414665e-002  5.9847729e-002  7.4131197e-002  5.9847729e-002  5.9847729e-002  3.8422528e-002  5.9847729e-002  9.8555927e-003  4.5564262e-002  4.5564262e-002  2.4139060e-002  1.6997326e-002 -2.5853076e-002  2.7138588e-003  1.6997326e-002  2.7138588e-003 -2.5853076e-002  2.7138588e-003 -3.2994810e-002 -5.4420012e-002 -4.0136544e-002 -6.8703479e-002 -5.4420012e-002 -6.1561745e-002 -6.8703479e-002 -6.1561745e-002 -7.5845213e-002 -9.0128681e-002 -6.8703479e-002 -6.1561745e-002 -9.0128681e-002 -7.5845213e-002 -7.5845213e-002 -9.0128681e-002 -9.7270415e-002 -6.1561745e-002 -9.7270415e-002 -1.1155388e-001 -4.0136544e-002 -8.2986947e-002 -1.0441215e-001 -9.0128681e-002 -8.2986947e-002 -9.0128681e-002 -9.0128681e-002 -6.1561745e-002 -1.0441215e-001 -5.4420012e-002 -1.1869562e-001 -9.7270415e-002 -1.2583735e-001 -1.1155388e-001 -1.1155388e-001 -8.2986947e-002 -6.1561745e-002 -2.5853076e-002 -1.8711343e-002  1.6997326e-002  4.5564262e-002  4.5564262e-002  6.6989463e-002  1.0269813e-001  9.5556398e-002  6.6989463e-002  4.5564262e-002  3.8422528e-002  1.6997326e-002 -1.8711343e-002 -4.7278278e-002 -6.8703479e-002 -9.7270415e-002 -9.0128681e-002 -9.0128681e-002 -1.1869562e-001 -1.2583735e-001 -1.3297908e-001 -1.3297908e-001 -1.4012082e-001 -1.5440429e-001 -1.1869562e-001 -1.1869562e-001 -1.1869562e-001 -9.7270415e-002 -9.0128681e-002 -1.1155388e-001 -1.4012082e-001 -1.1869562e-001 -1.4012082e-001 -1.4012082e-001 -1.1869562e-001 -1.3297908e-001 -1.2583735e-001 -1.0441215e-001 -1.1869562e-001 -1.1155388e-001 -9.7270415e-002 -8.2986947e-002 -7.5845213e-002 -9.0128681e-002 -1.0441215e-001 -1.0441215e-001 -6.8703479e-002 -1.0441215e-001 -9.0128681e-002 -8.2986947e-002 -6.1561745e-002 -6.8703479e-002 -1.0441215e-001 -1.0441215e-001 -1.2583735e-001 -1.3297908e-001 -6.8703479e-002  3.1280794e-002 -2.5853076e-002 -4.4721537e-001 -1.2970817e+000 -2.2112236e+000 -3.1253656e+000 -3.9038145e+000 -4.3108934e+000 -4.5751375e+000 -4.7179722e+000 -4.8179565e+000 -4.8322399e+000 -4.6608383e+000 -4.4108776e+000 -4.0680744e+000 -3.7752633e+000 -3.5395861e+000 -3.4467436e+000 -3.3253341e+000 -3.1753577e+000 -2.8325545e+000 -2.3326331e+000 -1.7827196e+000 -1.3256486e+000 -9.3999500e-001 -6.8289259e-001 -4.6864057e-001 -2.2582162e-001  4.5564262e-002  2.4553281e-001  4.0979269e-001  4.5264309e-001  4.6692656e-001  4.5264309e-001  4.5978482e-001  4.8121002e-001  4.7406829e-001  4.7406829e-001  5.0263523e-001  5.1691869e-001  5.3834389e-001  5.3120216e-001  5.3834389e-001  5.2406043e-001  5.5262736e-001  5.5976910e-001  5.8119430e-001  5.6691083e-001  6.0976123e-001  5.8833603e-001  6.0261950e-001  6.0976123e-001  6.1690297e-001  6.1690297e-001  6.1690297e-001  6.4546990e-001  6.5261164e-001  6.5261164e-001  6.9546204e-001  7.0974551e-001  7.3117071e-001  7.4545418e-001  7.8116284e-001  7.7402111e-001  7.5973764e-001  7.8116284e-001  8.1687151e-001  8.0972978e-001  8.3829672e-001  8.7400538e-001  8.6686365e-001  9.0971405e-001  9.3828099e-001  9.5970619e-001  9.3113925e-001  9.9541486e-001  1.0096983e+000  1.0311235e+000  1.0525487e+000  1.0811157e+000  1.0882574e+000  1.0882574e+000  1.1311078e+000  1.1525330e+000  1.1739582e+000  1.2096669e+000  1.2168086e+000  1.2239503e+000  1.2525173e+000  1.2810842e+000  1.2953677e+000  1.2810842e+000  1.3382181e+000  1.3453598e+000  1.3453598e+000  1.3739268e+000  1.3525015e+000  1.3525015e+000  1.3596433e+000  1.3739268e+000  1.3525015e+000  1.3596433e+000  1.3453598e+000  1.3167929e+000  1.2810842e+000  1.2525173e+000  1.2382338e+000  1.2096669e+000  1.1168243e+000  1.0953991e+000  1.0382653e+000  9.7398966e-001  9.0971405e-001  8.5258018e-001  8.1687151e-001  7.0974551e-001  6.4546990e-001  5.8119430e-001  5.2406043e-001  4.8121002e-001  3.8836748e-001  3.6694228e-001  2.9552495e-001  2.7409974e-001  2.3124934e-001  2.0982414e-001  1.4554854e-001  1.3840680e-001  1.1698160e-001  1.1698160e-001  7.4131197e-002  5.2705996e-002  3.1280794e-002 -4.4278750e-003  2.4139060e-002  3.8422528e-002  2.4139060e-002  2.4139060e-002  4.5564262e-002  3.8422528e-002  5.2705996e-002  3.8422528e-002  3.8422528e-002  4.5564262e-002  7.4131197e-002  5.9847729e-002  6.6989463e-002  7.4131197e-002  7.4131197e-002  1.0983987e-001  8.8414665e-002  9.5556398e-002  9.5556398e-002  8.1272931e-002  8.1272931e-002  7.4131197e-002  5.9847729e-002  7.4131197e-002  6.6989463e-002  5.2705996e-002  3.1280794e-002  5.2705996e-002  4.5564262e-002  5.9847729e-002  2.4139060e-002  1.6997326e-002  1.6997326e-002  3.1280794e-002  9.8555927e-003  9.8555927e-003 -4.4278750e-003 -4.4278750e-003 -4.4278750e-003 -4.4278750e-003 -1.1569609e-002 -2.5853076e-002 -1.1569609e-002 -4.4278750e-003 -5.4420012e-002 -5.4420012e-002 -4.0136544e-002 -1.8711343e-002 -1.1569609e-002 -1.8711343e-002 -4.0136544e-002 -3.2994810e-002 -4.0136544e-002 -3.2994810e-002 -1.1569609e-002 -4.7278278e-002 -3.2994810e-002 -4.7278278e-002 -6.1561745e-002 -4.0136544e-002 -6.8703479e-002 -4.0136544e-002 -4.0136544e-002 -5.4420012e-002 -5.4420012e-002 -7.5845213e-002 -5.4420012e-002 -5.4420012e-002 -6.1561745e-002 -6.1561745e-002 -4.7278278e-002 -6.1561745e-002 -4.0136544e-002 -3.2994810e-002 -4.0136544e-002 -4.0136544e-002 -4.4278750e-003  1.6997326e-002  6.6989463e-002  9.5556398e-002  1.1698160e-001  1.3840680e-001  1.5269027e-001  1.4554854e-001  1.5983200e-001  1.3126507e-001  9.5556398e-002  9.5556398e-002  1.0269813e-001  5.2705996e-002  3.1280794e-002  1.6997326e-002 -4.4278750e-003 -1.1569609e-002 -3.2994810e-002 -3.2994810e-002 -6.8703479e-002 -4.0136544e-002 -6.1561745e-002 -1.1569609e-002 -5.4420012e-002 -4.0136544e-002 -3.2994810e-002 -1.8711343e-002 -4.4278750e-003 -4.4278750e-003 -4.4278750e-003 -2.5853076e-002 -2.5853076e-002 -2.5853076e-002 -4.0136544e-002 -4.0136544e-002 -4.0136544e-002 -3.2994810e-002 -1.8711343e-002 -4.4278750e-003 -3.2994810e-002 -6.8703479e-002 -1.1569609e-002 -2.5853076e-002 -3.2994810e-002 -4.0136544e-002 -4.0136544e-002  9.8555927e-003 -4.7278278e-002 -3.2994810e-002 -3.2994810e-002 -4.7278278e-002 -4.0136544e-002 -4.7278278e-002 -8.2986947e-002 -9.7270415e-002 -6.8703479e-002 -3.2994810e-002  5.2705996e-002 -4.4278750e-003 -4.6149884e-001 -1.3327904e+000 -2.2469323e+000 -3.1610742e+000 -3.7752633e+000 -4.1037831e+000 -4.3323186e+000 -4.4751532e+000 -4.5180036e+000 -4.5108619e+000 -4.3251768e+000 -4.0395075e+000 -3.7252712e+000 -3.4753105e+000 -3.2539168e+000 -3.1682160e+000 -3.0325230e+000 -2.8325545e+000 -2.4683260e+000 -2.0255385e+000 -1.5256172e+000 -1.1113966e+000 -8.2572726e-001 -6.0433352e-001 -3.7579803e-001 -9.7270415e-002  1.1698160e-001  3.4551708e-001  4.3835962e-001  5.0977696e-001  5.0263523e-001  4.8835176e-001  4.5978482e-001  4.6692656e-001  5.0977696e-001  4.8121002e-001  5.2406043e-001  5.3120216e-001  5.2406043e-001  5.4548563e-001  5.3834389e-001  5.5976910e-001  5.6691083e-001  5.8119430e-001  6.0976123e-001  5.8119430e-001  5.6691083e-001  5.9547777e-001  6.2404470e-001  5.8119430e-001  6.3832817e-001  6.5975337e-001  6.4546990e-001  6.7403684e-001  6.6689510e-001  7.0260377e-001  6.7403684e-001  6.8117857e-001  6.9546204e-001  7.3117071e-001  7.3831244e-001  7.4545418e-001  7.4545418e-001  7.5259591e-001  7.5973764e-001  8.0972978e-001  8.1687151e-001  8.3115498e-001  8.6686365e-001  8.4543845e-001  8.7400538e-001  8.5972192e-001  9.0257232e-001  9.2399752e-001  9.7398966e-001  9.6684792e-001  9.9541486e-001  9.9541486e-001  1.0311235e+000  1.0454070e+000  1.0739739e+000  1.0811157e+000  1.1025409e+000  1.1168243e+000  1.1453913e+000  1.1311078e+000  1.1525330e+000  1.1810999e+000  1.2025251e+000  1.1953834e+000  1.2239503e+000  1.2096669e+000  1.2453755e+000  1.2310921e+000  1.2382338e+000  1.2596590e+000  1.3025094e+000  1.2739425e+000  1.2668007e+000  1.2525173e+000  1.2382338e+000  1.2310921e+000  1.1882417e+000  1.1596747e+000  1.1239661e+000  1.0811157e+000  1.0596905e+000  1.0096983e+000  9.5256446e-001  8.9543059e-001  8.3829672e-001  8.0258805e-001  7.0260377e-001  6.4546990e-001  6.0261950e-001  5.2406043e-001  4.8835176e-001  4.0979269e-001  3.5265882e-001  3.2409188e-001  2.5981628e-001  2.2410761e-001  1.9554067e-001  1.6697374e-001  1.5269027e-001  1.4554854e-001  1.2412333e-001  1.0983987e-001  9.5556398e-002  7.4131197e-002  8.1272931e-002  8.1272931e-002  4.5564262e-002  5.9847729e-002  6.6989463e-002  5.2705996e-002  7.4131197e-002  4.5564262e-002  8.1272931e-002  8.1272931e-002  9.5556398e-002  8.8414665e-002  8.8414665e-002  1.0983987e-001  6.6989463e-002  7.4131197e-002  8.1272931e-002  7.4131197e-002  6.6989463e-002  7.4131197e-002  6.6989463e-002  6.6989463e-002  8.8414665e-002  8.8414665e-002  5.9847729e-002  5.2705996e-002  5.9847729e-002  5.9847729e-002  7.4131197e-002  8.1272931e-002  5.9847729e-002  3.1280794e-002  1.6997326e-002  3.8422528e-002  3.8422528e-002  1.6997326e-002  9.8555927e-003 -1.1569609e-002  2.7138588e-003  1.6997326e-002  9.8555927e-003 -4.4278750e-003 -4.4278750e-003 -4.4278750e-003 -2.5853076e-002 -2.5853076e-002  9.8555927e-003 -4.7278278e-002 -5.4420012e-002 -5.4420012e-002 -4.0136544e-002 -1.1569609e-002 -4.7278278e-002 -6.1561745e-002 -4.0136544e-002 -4.7278278e-002 -6.8703479e-002 -6.8703479e-002 -5.4420012e-002 -9.7270415e-002 -5.4420012e-002 -4.0136544e-002 -7.5845213e-002 -6.8703479e-002 -9.0128681e-002 -8.2986947e-002 -8.2986947e-002 -6.8703479e-002 -7.5845213e-002 -4.7278278e-002 -5.4420012e-002 -6.1561745e-002 -7.5845213e-002 -5.4420012e-002 -3.2994810e-002 -5.4420012e-002  2.7138588e-003 -1.1569609e-002  3.8422528e-002  8.8414665e-002  8.1272931e-002  9.5556398e-002  1.0269813e-001  1.0269813e-001  9.5556398e-002  8.1272931e-002  4.5564262e-002  4.5564262e-002  2.7138588e-003 -4.4278750e-003 -4.0136544e-002 -5.4420012e-002 -4.7278278e-002 -4.7278278e-002 -4.7278278e-002 -4.7278278e-002 -6.1561745e-002 -5.4420012e-002 -6.1561745e-002 -4.7278278e-002 -2.5853076e-002 -7.5845213e-002 -6.1561745e-002 -5.4420012e-002 -5.4420012e-002 -6.8703479e-002 -8.2986947e-002 -6.8703479e-002 -4.0136544e-002 -6.1561745e-002 -6.8703479e-002 -6.8703479e-002 -5.4420012e-002 -6.8703479e-002 -8.2986947e-002 -6.8703479e-002 -7.5845213e-002 -7.5845213e-002 -5.4420012e-002 -6.1561745e-002 -4.0136544e-002 -6.1561745e-002 -9.7270415e-002 -8.2986947e-002 -6.8703479e-002 -6.8703479e-002 -1.1155388e-001 -8.2986947e-002 -1.0441215e-001 -1.1155388e-001 -1.1155388e-001 -1.0441215e-001 -2.5853076e-002  3.1280794e-002 -1.1569609e-002 -4.3293190e-001 -1.2470896e+000 -2.1612315e+000 -2.9611057e+000 -3.5038774e+000 -3.8466807e+000 -4.0609327e+000 -4.1394918e+000 -4.2037674e+000 -4.1323500e+000 -3.9609484e+000 -3.7181295e+000 -3.3967514e+000 -3.1467908e+000 -2.9396805e+000 -2.8896883e+000 -2.8182710e+000 -2.5968772e+000 -2.2255071e+000 -1.7755779e+000 -1.3256486e+000 -9.6856194e-001 -7.4002646e-001 -5.5434138e-001 -3.5437283e-001 -1.2583735e-001  9.5556398e-002  2.5981628e-001  3.4551708e-001  3.8836748e-001  3.8122575e-001  3.8836748e-001  3.4551708e-001  3.5265882e-001  4.0265095e-001  4.3835962e-001  4.2407615e-001  3.8836748e-001  4.0979269e-001  4.1693442e-001  4.3835962e-001  4.3835962e-001  4.5264309e-001  4.3835962e-001  4.5978482e-001  4.3121789e-001  4.6692656e-001  4.4550136e-001  4.9549349e-001  5.1691869e-001  5.0977696e-001  5.0977696e-001  5.1691869e-001  5.3834389e-001  5.3120216e-001  5.5262736e-001  5.4548563e-001  5.7405256e-001  6.0261950e-001  5.9547777e-001  5.9547777e-001  6.3118643e-001  6.5261164e-001  6.5261164e-001  6.5261164e-001  6.7403684e-001  6.9546204e-001  6.8117857e-001  7.0260377e-001  7.5259591e-001  7.1688724e-001  7.7402111e-001  7.7402111e-001  7.8830458e-001  7.8830458e-001  8.5258018e-001  8.5258018e-001  8.5972192e-001  8.6686365e-001  8.9543059e-001  9.2399752e-001  9.0971405e-001  9.2399752e-001  9.5970619e-001  9.7398966e-001  9.9541486e-001  1.0096983e+000  1.0096983e+000  1.0168401e+000  1.0454070e+000  1.0811157e+000  1.0525487e+000  1.0596905e+000  1.0596905e+000  1.0882574e+000  1.0811157e+000  1.0882574e+000  1.0953991e+000  1.0668322e+000  1.0596905e+000  1.0596905e+000  1.0454070e+000  1.0096983e+000  9.8827313e-001  9.3828099e-001  8.7400538e-001  8.6686365e-001  8.2401325e-001  7.3117071e-001  7.1688724e-001  6.5261164e-001  5.8833603e-001  5.3834389e-001  4.5978482e-001  4.5264309e-001  3.7408402e-001  3.2409188e-001  2.8124148e-001  2.5267454e-001  1.8839894e-001  1.3126507e-001  1.0983987e-001  1.2412333e-001  9.5556398e-002  5.9847729e-002  3.8422528e-002 -5.4420012e-002  2.4139060e-002 -2.5853076e-002 -1.8711343e-002 -3.2994810e-002 -3.2994810e-002 -4.0136544e-002 -3.2994810e-002 -4.0136544e-002 -4.0136544e-002 -3.2994810e-002 -2.5853076e-002 -4.7278278e-002 -4.4278750e-003 -2.5853076e-002  1.6997326e-002 -2.5853076e-002 -4.4278750e-003 -1.1569609e-002 -4.0136544e-002 -4.7278278e-002  3.1280794e-002  9.8555927e-003 -4.4278750e-003 -4.4278750e-003  2.7138588e-003 -1.1569609e-002 -1.1569609e-002  9.8555927e-003  2.7138588e-003 -1.8711343e-002 -1.8711343e-002  2.7138588e-003 -1.1569609e-002 -2.5853076e-002 -4.4278750e-003 -4.7278278e-002 -5.4420012e-002 -4.0136544e-002 -3.2994810e-002 -7.5845213e-002 -3.2994810e-002 -5.4420012e-002 -8.2986947e-002 -6.8703479e-002 -7.5845213e-002 -4.0136544e-002 -8.2986947e-002 -9.7270415e-002 -9.7270415e-002 -9.0128681e-002 -6.8703479e-002 -9.7270415e-002 -9.0128681e-002 -9.0128681e-002 -9.7270415e-002 -9.0128681e-002 -1.1155388e-001 -9.7270415e-002 -1.1869562e-001 -9.7270415e-002 -1.1155388e-001 -7.5845213e-002 -1.1869562e-001 -1.2583735e-001 -9.7270415e-002 -1.1869562e-001 -1.1155388e-001 -8.2986947e-002 -1.0441215e-001 -9.0128681e-002 -1.1155388e-001 -7.5845213e-002 -8.2986947e-002 -7.5845213e-002 -7.5845213e-002 -1.0441215e-001 -1.0441215e-001 -9.7270415e-002 -9.7270415e-002 -9.7270415e-002 -7.5845213e-002 -6.8703479e-002 -4.0136544e-002 -1.1569609e-002  1.6997326e-002  5.9847729e-002  8.1272931e-002  5.2705996e-002  7.4131197e-002  7.4131197e-002  4.5564262e-002  3.8422528e-002  2.7138588e-003 -4.7278278e-002 -4.0136544e-002 -1.1155388e-001 -8.2986947e-002 -1.1155388e-001 -1.0441215e-001 -9.7270415e-002 -1.0441215e-001 -1.2583735e-001 -1.4012082e-001 -1.4726255e-001 -1.4726255e-001 -1.1869562e-001 -1.5440429e-001 -1.4012082e-001 -1.4726255e-001 -1.3297908e-001 -1.3297908e-001 -1.1869562e-001 -1.4726255e-001 -1.1155388e-001 -1.1869562e-001 -1.4012082e-001 -1.3297908e-001 -1.4012082e-001 -1.3297908e-001 -1.1155388e-001 -1.4012082e-001 -1.4726255e-001 -1.6868775e-001 -1.6154602e-001 -1.8297122e-001 -1.6868775e-001 -1.4726255e-001 -1.7582949e-001 -1.5440429e-001 -1.6868775e-001 -1.6154602e-001 -1.6868775e-001 -1.6868775e-001 -1.6154602e-001 -1.8297122e-001 -2.0439642e-001 -1.9011295e-001 -1.8297122e-001 -1.0441215e-001 -6.1561745e-002 -2.5438856e-001 -8.6143593e-001 -1.6470267e+000 -2.4611843e+000 -3.0753734e+000 -3.4324601e+000 -3.6324287e+000 -3.7466964e+000 -3.8181137e+000 -3.8252555e+000 -3.7466964e+000 -3.5824365e+000 -3.3181924e+000 -3.0825151e+000 -2.9325387e+000 -2.8682631e+000 -2.7611371e+000 -2.6540111e+000 -2.4326174e+000 -2.0683889e+000 -1.6755936e+000 -1.3113652e+000 -9.9712888e-001 -7.7573513e-001 -5.8290831e-001 -3.9008150e-001 -1.9011295e-001  9.8555927e-003  1.3840680e-001  2.4553281e-001  2.8124148e-001  2.5267454e-001  2.5981628e-001  2.7409974e-001  2.8124148e-001  2.8838321e-001  2.9552495e-001  3.2409188e-001  3.3837535e-001  3.0266668e-001  3.3837535e-001  3.6694228e-001  3.7408402e-001  3.8836748e-001  3.9550922e-001  4.2407615e-001  3.9550922e-001  4.0265095e-001  4.2407615e-001  4.0979269e-001  4.3121789e-001  4.3121789e-001  4.2407615e-001  4.3121789e-001  4.5978482e-001  4.5264309e-001  4.8835176e-001  4.8121002e-001  4.9549349e-001  4.7406829e-001  4.9549349e-001  5.3834389e-001  5.4548563e-001  5.7405256e-001  5.8833603e-001  5.5262736e-001  5.7405256e-001  6.2404470e-001  6.3118643e-001  6.3118643e-001  6.6689510e-001  6.6689510e-001  6.8117857e-001  7.0974551e-001  7.3117071e-001  7.1688724e-001  7.4545418e-001  7.7402111e-001  7.7402111e-001  7.8116284e-001  8.0972978e-001  8.2401325e-001  8.3829672e-001  8.3829672e-001  8.8828885e-001  8.7400538e-001  8.7400538e-001  9.0971405e-001  9.0971405e-001  9.3113925e-001  9.5970619e-001  9.5256446e-001  9.7398966e-001  9.9541486e-001  9.6684792e-001  1.0096983e+000  9.8827313e-001  9.9541486e-001  1.0025566e+000  1.0025566e+000  9.6684792e-001  9.9541486e-001  9.1685579e-001  9.0971405e-001  8.8828885e-001  8.7400538e-001  8.5972192e-001  8.0258805e-001  7.4545418e-001  7.2402897e-001  6.8832031e-001  6.1690297e-001  5.7405256e-001  5.2406043e-001  4.8121002e-001  4.0979269e-001  3.7408402e-001  3.3123361e-001  2.6695801e-001  2.5981628e-001  2.0982414e-001  1.8839894e-001  1.3126507e-001  1.0269813e-001  7.4131197e-002  6.6989463e-002  5.9847729e-002  9.8555927e-003  3.1280794e-002  5.9847729e-002  9.8555927e-003 -1.8711343e-002  1.6997326e-002  2.4139060e-002 -4.4278750e-003 -1.1569609e-002  2.4139060e-002  2.7138588e-003  2.7138588e-003  3.1280794e-002  3.1280794e-002  3.8422528e-002  5.2705996e-002  5.9847729e-002  5.2705996e-002  4.5564262e-002  9.8555927e-003  4.5564262e-002  5.2705996e-002  8.1272931e-002  6.6989463e-002  4.5564262e-002  7.4131197e-002  3.8422528e-002  3.1280794e-002  3.1280794e-002  3.1280794e-002  1.6997326e-002  3.1280794e-002  3.8422528e-002  3.8422528e-002 -4.4278750e-003  1.6997326e-002  1.6997326e-002  3.1280794e-002 -4.4278750e-003  2.7138588e-003  9.8555927e-003  9.8555927e-003 -4.4278750e-003  9.8555927e-003  9.8555927e-003 -4.4278750e-003  2.7138588e-003 -1.8711343e-002 -1.8711343e-002 -4.4278750e-003  9.8555927e-003  2.7138588e-003 -4.4278750e-003 -4.4278750e-003 -1.1569609e-002  2.4139060e-002 -4.4278750e-003  3.1280794e-002  2.7138588e-003 -4.4278750e-003  9.8555927e-003  2.7138588e-003 -4.4278750e-003  2.7138588e-003 -1.8711343e-002  2.7138588e-003 -2.5853076e-002 -1.8711343e-002 -2.5853076e-002 -1.1569609e-002 -1.8711343e-002 -4.0136544e-002 -1.8711343e-002 -2.5853076e-002 -4.4278750e-003 -4.7278278e-002 -3.2994810e-002 -3.2994810e-002 -1.1569609e-002  1.6997326e-002  1.6997326e-002  1.6997326e-002  5.9847729e-002  8.1272931e-002  1.0269813e-001  8.8414665e-002  1.3126507e-001  1.3840680e-001  1.0983987e-001  1.0983987e-001  1.0269813e-001  9.5556398e-002  8.8414665e-002  8.8414665e-002  3.1280794e-002  2.7138588e-003  3.8422528e-002  3.1280794e-002 -2.5853076e-002 -1.1569609e-002 -2.5853076e-002 -4.0136544e-002 -6.8703479e-002 -6.1561745e-002 -2.5853076e-002 -4.0136544e-002 -1.8711343e-002 -4.4278750e-003 -4.4278750e-003 -4.0136544e-002 -1.1569609e-002 -2.5853076e-002 -4.0136544e-002 -4.0136544e-002 -1.8711343e-002 -2.5853076e-002 -4.0136544e-002 -2.5853076e-002 -1.8711343e-002 -4.4278750e-003 -3.2994810e-002 -2.5853076e-002 -4.7278278e-002 -2.5853076e-002 -3.2994810e-002 -1.1569609e-002  2.7138588e-003 -2.5853076e-002 -4.7278278e-002 -4.7278278e-002 -2.5853076e-002 -1.8711343e-002 -4.4278750e-003 -3.2994810e-002 -4.0136544e-002 -6.8703479e-002 -6.8703479e-002 -5.4420012e-002 -4.4278750e-003  7.4131197e-002  9.8555927e-003 -3.1152243e-001 -1.0114123e+000 -1.7827196e+000 -2.4611843e+000 -2.8754049e+000 -3.1110821e+000 -3.3039089e+000 -3.3753262e+000 -3.3681845e+000 -3.3253341e+000 -3.1753577e+000 -2.9253970e+000 -2.7182867e+000 -2.4683260e+000 -2.3826252e+000 -2.2969244e+000 -2.2397906e+000 -2.0541055e+000 -1.8112865e+000 -1.4541998e+000 -1.0828297e+000 -7.5430993e-001 -5.6148311e-001 -4.0436497e-001 -2.5438856e-001 -6.8703479e-002  1.0983987e-001  2.6695801e-001  3.5980055e-001  3.7408402e-001  3.6694228e-001  3.6694228e-001  3.3837535e-001  3.4551708e-001  3.4551708e-001  3.6694228e-001  3.6694228e-001  3.7408402e-001  4.0979269e-001  3.7408402e-001  3.8122575e-001  3.6694228e-001  3.8122575e-001  4.0265095e-001  4.1693442e-001  4.3835962e-001  4.0265095e-001  4.3835962e-001  4.3121789e-001  4.3835962e-001  4.5264309e-001  4.7406829e-001  4.8835176e-001  4.8835176e-001  5.0977696e-001  4.8835176e-001  5.0263523e-001  5.0263523e-001  5.0263523e-001  5.1691869e-001  5.3834389e-001  5.3120216e-001  5.4548563e-001  5.5262736e-001  5.6691083e-001  5.9547777e-001  6.0261950e-001  6.2404470e-001  6.5261164e-001  6.6689510e-001  6.5261164e-001  6.6689510e-001  6.9546204e-001  7.0974551e-001  7.2402897e-001  7.4545418e-001  7.8830458e-001  7.8116284e-001  8.0972978e-001  8.1687151e-001  8.0972978e-001  8.1687151e-001  8.5972192e-001  8.5258018e-001  8.7400538e-001  8.9543059e-001  8.8828885e-001  9.0971405e-001  9.4542272e-001  9.3828099e-001  9.2399752e-001  9.5256446e-001  9.6684792e-001  9.9541486e-001  9.7398966e-001  1.0025566e+000  9.8827313e-001  9.6684792e-001  9.8113139e-001  9.8113139e-001  9.3828099e-001  9.3828099e-001  9.1685579e-001  9.0257232e-001  8.8114712e-001  8.5258018e-001  8.5972192e-001  7.9544631e-001  7.5259591e-001  7.3831244e-001  6.8117857e-001  6.4546990e-001  6.0976123e-001  5.6691083e-001  5.2406043e-001  4.6692656e-001  4.3835962e-001  4.0979269e-001  3.5980055e-001  3.1695015e-001  2.8838321e-001  2.4553281e-001  2.6695801e-001  2.5267454e-001  2.1696587e-001  1.9554067e-001  1.8839894e-001  1.5269027e-001  1.1698160e-001  1.4554854e-001  1.1698160e-001  1.2412333e-001  1.1698160e-001  1.4554854e-001  1.2412333e-001  1.4554854e-001  1.4554854e-001  1.0983987e-001  1.3126507e-001  1.4554854e-001  1.4554854e-001  1.3126507e-001  1.6697374e-001  1.5983200e-001  1.5269027e-001  1.4554854e-001  1.4554854e-001  1.7411547e-001  1.5983200e-001  1.3840680e-001  2.0268241e-001  1.5983200e-001  1.5983200e-001  1.6697374e-001  1.7411547e-001  2.0982414e-001  1.7411547e-001  1.5983200e-001  1.7411547e-001  1.5269027e-001  1.4554854e-001  1.3126507e-001  1.3126507e-001  1.4554854e-001  1.6697374e-001  1.4554854e-001  1.4554854e-001  1.5983200e-001  1.5269027e-001  1.4554854e-001  1.4554854e-001  1.5983200e-001  1.3840680e-001  1.4554854e-001  1.3840680e-001  1.3126507e-001  1.3126507e-001  1.6697374e-001  1.3126507e-001  1.5269027e-001  1.4554854e-001  1.2412333e-001  1.5269027e-001  1.5983200e-001  1.5269027e-001  1.3840680e-001  1.0983987e-001  1.3126507e-001  1.2412333e-001  1.1698160e-001  1.3840680e-001  1.3840680e-001  1.1698160e-001  1.3840680e-001  1.2412333e-001  1.3126507e-001  1.1698160e-001  1.2412333e-001  1.0983987e-001  1.0983987e-001  1.0269813e-001  1.3126507e-001  1.1698160e-001  1.0983987e-001  1.4554854e-001  1.8839894e-001  1.8839894e-001  1.6697374e-001  2.0268241e-001  2.0982414e-001  2.2410761e-001  2.3124934e-001  2.3839107e-001  2.2410761e-001  2.3124934e-001  2.2410761e-001  2.1696587e-001  1.9554067e-001  1.6697374e-001  1.5269027e-001  1.1698160e-001  1.1698160e-001  1.1698160e-001  1.0983987e-001  1.0983987e-001  1.1698160e-001  8.8414665e-002  1.1698160e-001  8.8414665e-002  1.0983987e-001  7.4131197e-002  9.5556398e-002  9.5556398e-002  1.0983987e-001  9.5556398e-002  1.2412333e-001  1.0269813e-001  1.0269813e-001  9.5556398e-002  7.4131197e-002  8.8414665e-002  9.5556398e-002  1.1698160e-001  1.1698160e-001  9.5556398e-002  8.8414665e-002  1.0269813e-001  1.0269813e-001  9.5556398e-002  1.1698160e-001  8.8414665e-002  8.8414665e-002  1.0983987e-001  1.2412333e-001  1.1698160e-001  8.8414665e-002  9.5556398e-002  8.8414665e-002  1.0983987e-001  7.4131197e-002  8.8414665e-002  4.5564262e-002  1.2412333e-001  1.8839894e-001  2.3124934e-001  6.6989463e-002 -4.0436497e-001 -1.0685462e+000 -1.6755936e+000 -2.1398063e+000 -2.3469166e+000 -2.5183182e+000 -2.6040190e+000 -2.6183025e+000 -2.6111607e+000 -2.5183182e+000 -2.3469166e+000 -2.1326646e+000 -1.9398377e+000 -1.8327117e+000 -1.7541527e+000 -1.7184440e+000 -1.6113180e+000 -1.3970660e+000 -1.1613888e+000 -9.1142807e-001 -6.0433352e-001 -4.4721537e-001 -2.8295549e-001 -1.7582949e-001 -3.2994810e-002  1.6697374e-001  2.8838321e-001  3.8122575e-001  4.3121789e-001  4.3835962e-001  4.3121789e-001  4.2407615e-001  4.1693442e-001  4.4550136e-001  4.3835962e-001  4.1693442e-001  4.0979269e-001  4.3835962e-001  4.7406829e-001  4.8121002e-001  4.5978482e-001  4.5264309e-001  4.3121789e-001  4.6692656e-001  4.8121002e-001  4.9549349e-001  5.0263523e-001  4.9549349e-001  4.9549349e-001  4.8835176e-001  5.0977696e-001  5.3834389e-001  5.3120216e-001  5.3834389e-001  5.6691083e-001  5.7405256e-001  5.4548563e-001  5.5976910e-001  5.8119430e-001  5.8119430e-001  5.8119430e-001  5.9547777e-001  6.3118643e-001  6.3118643e-001  6.4546990e-001  6.4546990e-001  6.4546990e-001  6.5261164e-001  6.5975337e-001  6.8117857e-001  6.6689510e-001  7.0260377e-001  7.0974551e-001  7.0260377e-001  7.2402897e-001  7.4545418e-001  7.8830458e-001  7.6687938e-001  7.8116284e-001  7.8116284e-001  7.8830458e-001  7.9544631e-001  8.2401325e-001  8.5258018e-001  8.3829672e-001  8.5258018e-001  8.6686365e-001  9.0257232e-001  8.8114712e-001  8.8828885e-001  9.1685579e-001  9.2399752e-001  9.1685579e-001  9.4542272e-001  9.4542272e-001  9.2399752e-001  9.4542272e-001  9.3828099e-001  9.5256446e-001  9.3113925e-001
